# Angstrom [air],  flux [abs.cor.cont.sub+1]
       6544.9914       1.0162064
       6545.0088       1.0164090
       6545.0262       1.0170112
       6545.0436       1.0178819
       6545.0611       1.0188256
       6545.0785       1.0196400
       6545.0959       1.0201743
       6545.1133       1.0203712
       6545.1307       1.0202696
       6545.1481       1.0199747
       6545.1655       1.0196199
       6545.1829       1.0193289
       6545.2003       1.0191894
       6545.2177       1.0192438
       6545.2352       1.0194923
       6545.2526       1.0199064
       6545.2700       1.0204451
       6545.2874       1.0210683
       6545.3048       1.0217453
       6545.3222       1.0224593
       6545.3396       1.0232122
       6545.3570       1.0240316
       6545.3744       1.0249805
       6545.3918       1.0261680
       6545.4093       1.0277529
       6545.4267       1.0299374
       6545.4441       1.0329486
       6545.4615       1.0370076
       6545.4789       1.0422951
       6545.4963       1.0489184
       6545.5137       1.0568868
       6545.5311       1.0661007
       6545.5485       1.0763569
       6545.5660       1.0873711
       6545.5834       1.0988164
       6545.6008       1.1103709
       6545.6182       1.1217609
       6545.6356       1.1327868
       6545.6530       1.1433231
       6545.6704       1.1532936
       6545.6878       1.1626365
       6545.7052       1.1712719
       6545.7226       1.1790860
       6545.7401       1.1859328
       6545.7575       1.1916466
       6545.7749       1.1960579
       6545.7923       1.1990078
       6545.8097       1.2003582
       6545.8271       1.2000036
       6545.8445       1.1978859
       6545.8619       1.1940070
       6545.8793       1.1884338
       6545.8967       1.1812885
       6545.9142       1.1727234
       6545.9316       1.1628917
       6545.9490       1.1519231
       6545.9664       1.1399170
       6545.9838       1.1269533
       6546.0012       1.1131154
       6546.0186       1.0985132
       6546.0360       1.0832961
       6546.0534       1.0676516
       6546.0708       1.0517915
       6546.0883       1.0359322
       6546.1057       1.0202777
       6546.1231       1.0050075
       6546.1405      0.99027404
       6546.1579      0.97620838
       6546.1753      0.96293107
       6546.1927      0.95056415
       6546.2101      0.93923778
       6546.2275      0.92908663
       6546.2449      0.92023505
       6546.2624      0.91277665
       6546.2798      0.90675756
       6546.2972      0.90217269
       6546.3146      0.89897843
       6546.3320      0.89711776
       6546.3494      0.89654715
       6546.3668      0.89725366
       6546.3842      0.89925426
       6546.4016      0.90258251
       6546.4191      0.90724168
       6546.4365      0.91318106
       6546.4539      0.92027766
       6546.4713      0.92833154
       6546.4887      0.93708377
       6546.5061      0.94624793
       6546.5235      0.95554481
       6546.5409      0.96472919
       6546.5583      0.97360223
       6546.5757      0.98200882
       6546.5932      0.98982617
       6546.6106      0.99695322
       6546.6280       1.0033090
       6546.6454       1.0088417
       6546.6628       1.0135416
       6546.6802       1.0174471
       6546.6976       1.0206351
       6546.7150       1.0231984
       6546.7324       1.0252200
       6546.7498       1.0267594
       6546.7673       1.0278582
       6546.7847       1.0285596
       6546.8021       1.0289292
       6546.8195       1.0290639
       6546.8369       1.0290854
       6546.8543       1.0291209
       6546.8717       1.0292813
       6546.8891       1.0296427
       6546.9065       1.0302339
       6546.9239       1.0310334
       6546.9414       1.0319756
       6546.9588       1.0329675
       6546.9762       1.0339102
       6546.9936       1.0347204
       6547.0110       1.0353429
       6547.0284       1.0357510
       6547.0458       1.0359375
       6547.0632       1.0359028
       6547.0806       1.0356500
       6547.0980       1.0351808
       6547.1155       1.0345023
       6547.1329       1.0336316
       6547.1503       1.0325973
       6547.1677       1.0314366
       6547.1851       1.0301930
       6547.2025       1.0289178
       6547.2199       1.0276790
       6547.2373       1.0265693
       6547.2547       1.0257058
       6547.2722       1.0252129
       6547.2896       1.0251925
       6547.3070       1.0256899
       6547.3244       1.0266716
       6547.3418       1.0280235
       6547.3592       1.0295709
       6547.3766       1.0311100
       6547.3940       1.0324447
       6547.4114       1.0334192
       6547.4288       1.0339452
       6547.4463       1.0340205
       6547.4637       1.0337337
       6547.4811       1.0332478
       6547.4985       1.0327607
       6547.5159       1.0324504
       6547.5333       1.0324256
       6547.5507       1.0327009
       6547.5681       1.0332077
       6547.5855       1.0338358
       6547.6029       1.0344826
       6547.6204       1.0350899
       6547.6378       1.0356521
       6547.6552       1.0362008
       6547.6726       1.0367753
       6547.6900       1.0373941
       6547.7074       1.0380369
       6547.7248       1.0386413
       6547.7422       1.0391193
       6547.7596       1.0393872
       6547.7770       1.0394043
       6547.7945       1.0392039
       6547.8119       1.0389036
       6547.8293       1.0386808
       6547.8467       1.0387208
       6547.8641       1.0391527
       6547.8815       1.0400004
       6547.8989       1.0411673
       6547.9163       1.0424612
       6547.9337       1.0436467
       6547.9511       1.0445017
       6547.9686       1.0448567
       6547.9860       1.0446060
       6548.0034       1.0436937
       6548.0208       1.0420912
       6548.0382       1.0397858
       6548.0556       1.0367912
       6548.0730       1.0331798
       6548.0904       1.0291193
       6548.1078       1.0248900
       6548.1253       1.0208637
       6548.1427       1.0174412
       6548.1601       1.0149658
       6548.1775       1.0136437
       6548.1949       1.0135004
       6548.2123       1.0143885
       6548.2297       1.0160384
       6548.2471       1.0181322
       6548.2645       1.0203741
       6548.2819       1.0225406
       6548.2994       1.0244999
       6548.3168       1.0262067
       6548.3342       1.0276768
       6548.3516       1.0289529
       6548.3690       1.0300738
       6548.3864       1.0310535
       6548.4038       1.0318754
       6548.4212       1.0325049
       6548.4386       1.0329106
       6548.4560       1.0330855
       6548.4735       1.0330617
       6548.4909       1.0329156
       6548.5083       1.0327634
       6548.5257       1.0327476
       6548.5431       1.0330128
       6548.5605       1.0336719
       6548.5779       1.0347697
       6548.5953       1.0362561
       6548.6127       1.0379847
       6548.6301       1.0397424
       6548.6476       1.0413051
       6548.6650       1.0425024
       6548.6824       1.0432702
       6548.6998       1.0436721
       6548.7172       1.0438842
       6548.7346       1.0441447
       6548.7520       1.0446840
       6548.7694       1.0456538
       6548.7868       1.0470766
       6548.8042       1.0488326
       6548.8217       1.0506890
       6548.8391       1.0523628
       6548.8565       1.0535981
       6548.8739       1.0542314
       6548.8913       1.0542257
       6548.9087       1.0536665
       6548.9261       1.0527243
       6548.9435       1.0516027
       6548.9609       1.0504870
       6548.9784       1.0495096
       6548.9958       1.0487361
       6549.0132       1.0481720
       6549.0306       1.0477761
       6549.0480       1.0474908
       6549.0654       1.0472653
       6549.0828       1.0470742
       6549.1002       1.0469267
       6549.1176       1.0468638
       6549.1350       1.0469418
       6549.1525       1.0472091
       6549.1699       1.0476830
       6549.1873       1.0483368
       6549.2047       1.0491030
       6549.2221       1.0498899
       6549.2395       1.0506046
       6549.2569       1.0511736
       6549.2743       1.0515529
       6549.2917       1.0517280
       6549.3091       1.0517052
       6549.3266       1.0515022
       6549.3440       1.0511401
       6549.3614       1.0506410
       6549.3788       1.0500295
       6549.3962       1.0493361
       6549.4136       1.0485986
       6549.4310       1.0478624
       6549.4484       1.0471767
       6549.4658       1.0465916
       6549.4832       1.0461530
       6549.5007       1.0458988
       6549.5181       1.0458541
       6549.5355       1.0460261
       6549.5529       1.0464005
       6549.5703       1.0469404
       6549.5877       1.0475883
       6549.6051       1.0482722
       6549.6225       1.0489143
       6549.6399       1.0494418
       6549.6573       1.0497975
       6549.6748       1.0499489
       6549.6922       1.0498943
       6549.7096       1.0496593
       6549.7270       1.0492920
       6549.7444       1.0488551
       6549.7618       1.0484154
       6549.7792       1.0480315
       6549.7966       1.0477385
       6549.8140       1.0475336
       6549.8315       1.0473673
       6549.8489       1.0471484
       6549.8663       1.0467643
       6549.8837       1.0461141
       6549.9011       1.0451435
       6549.9185       1.0438725
       6549.9359       1.0424051
       6549.9533       1.0409188
       6549.9707       1.0396337
       6549.9881       1.0387675
       6550.0056       1.0384873
       6550.0230       1.0388698
       6550.0404       1.0398832
       6550.0578       1.0413947
       6550.0752       1.0432007
       6550.0926       1.0450689
       6550.1100       1.0467800
       6550.1274       1.0481610
       6550.1448       1.0491048
       6550.1622       1.0495786
       6550.1797       1.0496185
       6550.1971       1.0493136
       6550.2145       1.0487804
       6550.2319       1.0481319
       6550.2493       1.0474520
       6550.2667       1.0467829
       6550.2841       1.0461309
       6550.3015       1.0454861
       6550.3189       1.0448457
       6550.3363       1.0442275
       6550.3538       1.0436678
       6550.3712       1.0432057
       6550.3886       1.0428646
       6550.4060       1.0426390
       6550.4234       1.0424935
       6550.4408       1.0423730
       6550.4582       1.0422184
       6550.4756       1.0419825
       6550.4930       1.0416416
       6550.5104       1.0411997
       6550.5279       1.0406861
       6550.5453       1.0401483
       6550.5627       1.0396429
       6550.5801       1.0392248
       6550.5975       1.0389388
       6550.6149       1.0388124
       6550.6323       1.0388551
       6550.6497       1.0390644
       6550.6671       1.0394381
       6550.6846       1.0399874
       6550.7020       1.0407430
       6550.7194       1.0417483
       6550.7368       1.0430400
       6550.7542       1.0446251
       6550.7716       1.0464627
       6550.7890       1.0484599
       6550.8064       1.0504857
       6550.8238       1.0523991
       6550.8412       1.0540842
       6550.8587       1.0554771
       6550.8761       1.0565765
       6550.8935       1.0574296
       6550.9109       1.0581031
       6550.9283       1.0586525
       6550.9457       1.0591078
       6550.9631       1.0594816
       6550.9805       1.0597932
       6550.9979       1.0600877
       6551.0153       1.0604320
       6551.0328       1.0608877
       6551.0502       1.0614739
       6551.0676       1.0621417
       6551.0850       1.0627801
       6551.1024       1.0632522
       6551.1198       1.0634476
       6551.1372       1.0633267
       6551.1546       1.0629367
       6551.1720       1.0623938
       6551.1894       1.0618375
       6551.2069       1.0613786
       6551.2243       1.0610565
       6551.2417       1.0608234
       6551.2591       1.0605576
       6551.2765       1.0601058
       6551.2939       1.0593413
       6551.3113       1.0582216
       6551.3287       1.0568239
       6551.3461       1.0553374
       6551.3635       1.0540088
       6551.3810       1.0530562
       6551.3984       1.0525865
       6551.4158       1.0525552
       6551.4332       1.0527889
       6551.4506       1.0530617
       6551.4680       1.0531900
       6551.4854       1.0531012
       6551.5028       1.0528506
       6551.5202       1.0525843
       6551.5377       1.0524724
       6551.5551       1.0526488
       6551.5725       1.0531795
       6551.5899       1.0540667
       6551.6073       1.0552739
       6551.6247       1.0567499
       6551.6421       1.0584318
       6551.6595       1.0602384
       6551.6769       1.0620537
       6551.6943       1.0637264
       6551.7118       1.0650927
       6551.7292       1.0660177
       6551.7466       1.0664375
       6551.7640       1.0663826
       6551.7814       1.0659690
       6551.7988       1.0653590
       6551.8162       1.0647063
       6551.8336       1.0641067
       6551.8510       1.0635737
       6551.8684       1.0630490
       6551.8859       1.0624425
       6551.9033       1.0616819
       6551.9207       1.0607499
       6551.9381       1.0596908
       6551.9555       1.0585848
       6551.9729       1.0575042
       6551.9903       1.0564745
       6552.0077       1.0554626
       6552.0251       1.0543968
       6552.0425       1.0532085
       6552.0600       1.0518754
       6552.0774       1.0504463
       6552.0948       1.0490403
       6552.1122       1.0478240
       6552.1296       1.0469781
       6552.1470       1.0466652
       6552.1644       1.0470041
       6552.1818       1.0480525
       6552.1992       1.0497999
       6552.2167       1.0521679
       6552.2341       1.0550199
       6552.2515       1.0581770
       6552.2689       1.0614378
       6552.2863       1.0645989
       6552.3037       1.0674802
       6552.3211       1.0699419
       6552.3385       1.0718978
       6552.3559       1.0733215
       6552.3733       1.0742430
       6552.3908       1.0747380
       6552.4082       1.0749120
       6552.4256       1.0748818
       6552.4430       1.0747618
       6552.4604       1.0746527
       6552.4778       1.0746358
       6552.4952       1.0747705
       6552.5126       1.0750920
       6552.5300       1.0756119
       6552.5474       1.0763184
       6552.5649       1.0771799
       6552.5823       1.0781498
       6552.5997       1.0791746
       6552.6171       1.0802033
       6552.6345       1.0811974
       6552.6519       1.0821384
       6552.6693       1.0830304
       6552.6867       1.0838939
       6552.7041       1.0847563
       6552.7215       1.0856425
       6552.7390       1.0865712
       6552.7564       1.0875585
       6552.7738       1.0886210
       6552.7912       1.0897722
       6552.8086       1.0910069
       6552.8260       1.0922819
       6552.8434       1.0935038
       6552.8608       1.0945365
       6552.8782       1.0952299
       6552.8956       1.0954601
       6552.9131       1.0951634
       6552.9305       1.0943514
       6552.9479       1.0931063
       6552.9653       1.0915471
       6552.9827       1.0898007
       6553.0001       1.0879768
       6553.0175       1.0861561
       6553.0349       1.0843927
       6553.0523       1.0827263
       6553.0698       1.0811960
       6553.0872       1.0798464
       6553.1046       1.0787213
       6553.1220       1.0778439
       6553.1394       1.0771933
       6553.1568       1.0766904
       6553.1742       1.0762045
       6553.1916       1.0755853
       6553.2090       1.0747144
       6553.2264       1.0735575
       6553.2439       1.0721983
       6553.2613       1.0708343
       6553.2787       1.0697292
       6553.2961       1.0691345
       6553.3135       1.0692048
       6553.3309       1.0699404
       6553.3483       1.0711801
       6553.3657       1.0726478
       6553.3831       1.0740351
       6553.4005       1.0750897
       6553.4180       1.0756796
       6553.4354       1.0758153
       6553.4528       1.0756327
       6553.4702       1.0753470
       6553.4876       1.0751956
       6553.5050       1.0753813
       6553.5224       1.0760254
       6553.5398       1.0771352
       6553.5572       1.0785936
       6553.5746       1.0801751
       6553.5921       1.0815947
       6553.6095       1.0825856
       6553.6269       1.0829752
       6553.6443       1.0827444
       6553.6617       1.0820449
       6553.6791       1.0811685
       6553.6965       1.0804736
       6553.7139       1.0802938
       6553.7313       1.0808559
       6553.7487       1.0822311
       6553.7662       1.0843297
       6553.7836       1.0869367
       6553.8010       1.0897719
       6553.8184       1.0925567
       6553.8358       1.0950686
       6553.8532       1.0971708
       6553.8706       1.0988114
       6553.8880       1.0999965
       6553.9054       1.1007494
       6553.9229       1.1010740
       6553.9403       1.1009388
       6553.9577       1.1002900
       6553.9751       1.0990894
       6553.9925       1.0973591
       6554.0099       1.0952124
       6554.0273       1.0928536
       6554.0447       1.0905440
       6554.0621       1.0885437
       6554.0795       1.0870498
       6554.0970       1.0861506
       6554.1144       1.0858098
       6554.1318       1.0858839
       6554.1492       1.0861655
       6554.1666       1.0864387
       6554.1840       1.0865302
       6554.2014       1.0863431
       6554.2188       1.0858665
       6554.2362       1.0851668
       6554.2536       1.0843623
       6554.2711       1.0835903
       6554.2885       1.0829828
       6554.3059       1.0826472
       6554.3233       1.0826541
       6554.3407       1.0830315
       6554.3581       1.0837651
       6554.3755       1.0848052
       6554.3929       1.0860812
       6554.4103       1.0875187
       6554.4277       1.0890570
       6554.4452       1.0906573
       6554.4626       1.0922998
       6554.4800       1.0939706
       6554.4974       1.0956448
       6554.5148       1.0972749
       6554.5322       1.0987900
       6554.5496       1.1001082
       6554.5670       1.1011562
       6554.5844       1.1018919
       6554.6018       1.1023216
       6554.6193       1.1025080
       6554.6367       1.1025638
       6554.6541       1.1026318
       6554.6715       1.1028544
       6554.6889       1.1033418
       6554.7063       1.1041497
       6554.7237       1.1052728
       6554.7411       1.1066587
       6554.7585       1.1082369
       6554.7760       1.1099550
       6554.7934       1.1118124
       6554.8108       1.1138789
       6554.8282       1.1162900
       6554.8456       1.1192138
       6554.8630       1.1227969
       6554.8804       1.1271077
       6554.8978       1.1320705
       6554.9152       1.1374664
       6554.9326       1.1429554
       6554.9501       1.1481352
       6554.9675       1.1526165
       6554.9849       1.1560940
       6555.0023       1.1583941
       6555.0197       1.1594886
       6555.0371       1.1594735
       6555.0545       1.1585233
       6555.0719       1.1568362
       6555.0893       1.1545912
       6555.1067       1.1519287
       6555.1242       1.1489540
       6555.1416       1.1457505
       6555.1590       1.1423865
       6555.1764       1.1389087
       6555.1938       1.1353264
       6555.2112       1.1316028
       6555.2286       1.1276664
       6555.2460       1.1234416
       6555.2634       1.1188877
       6555.2808       1.1140261
       6555.2983       1.1089445
       6555.3157       1.1037794
       6555.3331       1.0986864
       6555.3505       1.0938131
       6555.3679       1.0892814
       6555.3853       1.0851786
       6555.4027       1.0815549
       6555.4201       1.0784239
       6555.4375       1.0757669
       6555.4549       1.0735410
       6555.4724       1.0716908
       6555.4898       1.0701598
