# Angstrom [air],  flux [abs.cor.cont.sub+1]
       6544.9914       1.0269425
       6545.0088       1.0263416
       6545.0262       1.0256967
       6545.0436       1.0250419
       6545.0611       1.0244068
       6545.0785       1.0238098
       6545.0959       1.0232585
       6545.1133       1.0227569
       6545.1307       1.0223151
       6545.1481       1.0219574
       6545.1655       1.0217238
       6545.1829       1.0216650
       6545.2003       1.0218287
       6545.2177       1.0222422
       6545.2352       1.0228985
       6545.2526       1.0237522
       6545.2700       1.0247321
       6545.2874       1.0257689
       6545.3048       1.0268283
       6545.3222       1.0279390
       6545.3396       1.0292011
       6545.3570       1.0307701
       6545.3744       1.0328194
       6545.3918       1.0354938
       6545.4093       1.0388725
       6545.4267       1.0429551
       6545.4441       1.0476756
       6545.4615       1.0529406
       6545.4789       1.0586740
       6545.4963       1.0648524
       6545.5137       1.0715181
       6545.5311       1.0787633
       6545.5485       1.0866946
       6545.5660       1.0953863
       6545.5834       1.1048411
       6545.6008       1.1149658
       6545.6182       1.1255685
       6545.6356       1.1363743
       6545.6530       1.1470515
       6545.6704       1.1572462
       6545.6878       1.1666179
       6545.7052       1.1748780
       6545.7226       1.1818248
       6545.7401       1.1873669
       6545.7575       1.1915261
       6545.7749       1.1944106
       6545.7923       1.1961516
       6545.8097       1.1968351
       6545.8271       1.1964442
       6545.8445       1.1948369
       6545.8619       1.1917730
       6545.8793       1.1869840
       6545.8967       1.1802598
       6545.9142       1.1715238
       6545.9316       1.1608650
       6545.9490       1.1485219
       6545.9664       1.1348259
       6545.9838       1.1201330
       6546.0012       1.1047711
       6546.0186       1.0890190
       6546.0360       1.0731173
       6546.0534       1.0572928
       6546.0708       1.0417726
       6546.0883       1.0267757
       6546.1057       1.0124822
       6546.1231      0.99900123
       6546.1405      0.98635956
       6546.1579      0.97452645
       6546.1753      0.96346663
       6546.1927      0.95319708
       6546.2101      0.94381698
       6546.2275      0.93549331
       6546.2449      0.92840816
       6546.2624      0.92269511
       6546.2798      0.91839764
       6546.2972      0.91547058
       6546.3146      0.91382183
       6546.3320      0.91337127
       6546.3494      0.91409629
       6546.3668      0.91604225
       6546.3842      0.91929379
       6546.4016      0.92392631
       6546.4191      0.92993078
       6546.4365      0.93718232
       6546.4539      0.94543390
       6546.4713      0.95433637
       6546.4887      0.96348625
       6546.5061      0.97248493
       6546.5235      0.98099429
       6546.5409      0.98877566
       6546.5583      0.99570432
       6546.5757       1.0017593
       6546.5932       1.0069948
       6546.6106       1.0115031
       6546.6280       1.0153813
       6546.6454       1.0187075
       6546.6628       1.0215315
       6546.6802       1.0238770
       6546.6976       1.0257522
       6546.7150       1.0271639
       6546.7324       1.0281289
       6546.7498       1.0286802
       6546.7673       1.0288645
       6546.7847       1.0287325
       6546.8021       1.0283291
       6546.8195       1.0276873
       6546.8369       1.0268347
       6546.8543       1.0258084
       6546.8717       1.0246750
       6546.8891       1.0235414
       6546.9065       1.0225505
       6546.9239       1.0218555
       6546.9414       1.0215819
       6546.9588       1.0217868
       6546.9762       1.0224336
       6546.9936       1.0233937
       6547.0110       1.0244796
       6547.0284       1.0254996
       6547.0458       1.0263151
       6547.0632       1.0268795
       6547.0806       1.0272456
       6547.0980       1.0275294
       6547.1155       1.0278626
       6547.1329       1.0283457
       6547.1503       1.0290223
       6547.1677       1.0298789
       6547.1851       1.0308634
       6547.2025       1.0319093
       6547.2199       1.0329555
       6547.2373       1.0339557
       6547.2547       1.0348811
       6547.2722       1.0357197
       6547.2896       1.0364744
       6547.3070       1.0371594
       6547.3244       1.0377940
       6547.3418       1.0383933
       6547.3592       1.0389617
       6547.3766       1.0394903
       6547.3940       1.0399611
       6547.4114       1.0403531
       6547.4288       1.0406475
       6547.4463       1.0408276
       6547.4637       1.0408771
       6547.4811       1.0407789
       6547.4985       1.0405191
       6547.5159       1.0400963
       6547.5333       1.0395327
       6547.5507       1.0388806
       6547.5681       1.0382204
       6547.5855       1.0376476
       6547.6029       1.0372541
       6547.6204       1.0371093
       6547.6378       1.0372494
       6547.6552       1.0376766
       6547.6726       1.0383677
       6547.6900       1.0392866
       6547.7074       1.0403950
       6547.7248       1.0416535
       6547.7422       1.0430214
       6547.7596       1.0444474
       6547.7770       1.0458610
       6547.7945       1.0471674
       6547.8119       1.0482518
       6547.8293       1.0489943
       6547.8467       1.0492954
       6547.8641       1.0491052
       6547.8815       1.0484456
       6547.8989       1.0474143
       6547.9163       1.0461632
       6547.9337       1.0448556
       6547.9511       1.0436139
       6547.9686       1.0424817
       6547.9860       1.0414143
       6548.0034       1.0403061
       6548.0208       1.0390405
       6548.0382       1.0375441
       6548.0556       1.0358227
       6548.0730       1.0339704
       6548.0904       1.0321528
       6548.1078       1.0305745
       6548.1253       1.0294382
       6548.1427       1.0289013
       6548.1601       1.0290355
       6548.1775       1.0297979
       6548.1949       1.0310271
       6548.2123       1.0324733
       6548.2297       1.0338595
       6548.2471       1.0349562
       6548.2645       1.0356405
       6548.2819       1.0359172
       6548.2994       1.0358954
       6548.3168       1.0357328
       6548.3342       1.0355759
       6548.3516       1.0355205
       6548.3690       1.0356027
       6548.3864       1.0358148
       6548.4038       1.0361332
       6548.4212       1.0365366
       6548.4386       1.0370145
       6548.4560       1.0375662
       6548.4735       1.0381983
       6548.4909       1.0389218
       6548.5083       1.0397464
       6548.5257       1.0406704
       6548.5431       1.0416680
       6548.5605       1.0426815
       6548.5779       1.0436256
       6548.5953       1.0444035
       6548.6127       1.0449316
       6548.6301       1.0451626
       6548.6476       1.0451005
       6548.6650       1.0448051
       6548.6824       1.0443852
       6548.6998       1.0439831
       6548.7172       1.0437516
       6548.7346       1.0438279
       6548.7520       1.0443078
       6548.7694       1.0452271
       6548.7868       1.0465542
       6548.8042       1.0481935
       6548.8217       1.0499969
       6548.8391       1.0517782
       6548.8565       1.0533300
       6548.8739       1.0544455
       6548.8913       1.0549472
       6548.9087       1.0547219
       6548.9261       1.0537514
       6548.9435       1.0521268
       6548.9609       1.0500331
       6548.9784       1.0477068
       6548.9958       1.0453806
       6549.0132       1.0432395
       6549.0306       1.0413955
       6549.0480       1.0399034
       6549.0654       1.0387880
       6549.0828       1.0380676
       6549.1002       1.0377599
       6549.1176       1.0378711
       6549.1350       1.0383784
       6549.1525       1.0392193
       6549.1699       1.0402964
       6549.1873       1.0414945
       6549.2047       1.0427026
       6549.2221       1.0438317
       6549.2395       1.0448229
       6549.2569       1.0456450
       6549.2743       1.0462846
       6549.2917       1.0467340
       6549.3091       1.0469829
       6549.3266       1.0470179
       6549.3440       1.0468299
       6549.3614       1.0464252
       6549.3788       1.0458341
       6549.3962       1.0451122
       6549.4136       1.0443326
       6549.4310       1.0435732
       6549.4484       1.0429043
       6549.4658       1.0423820
       6549.4832       1.0420466
       6549.5007       1.0419247
       6549.5181       1.0420284
       6549.5355       1.0423501
       6549.5529       1.0428541
       6549.5703       1.0434742
       6549.5877       1.0441212
       6549.6051       1.0447031
       6549.6225       1.0451497
       6549.6399       1.0454270
       6549.6573       1.0455353
       6549.6748       1.0454925
       6549.6922       1.0453133
       6549.7096       1.0450008
       6549.7270       1.0445588
       6549.7444       1.0440141
       6549.7618       1.0434333
       6549.7792       1.0429168
       6549.7966       1.0425663
       6549.8140       1.0424410
       6549.8315       1.0425237
       6549.8489       1.0427189
       6549.8663       1.0428863
       6549.8837       1.0428987
       6549.9011       1.0426965
       6549.9185       1.0423155
       6549.9359       1.0418752
       6549.9533       1.0415329
       6549.9707       1.0414259
       6549.9881       1.0416263
       6550.0056       1.0421263
       6550.0230       1.0428569
       6550.0404       1.0437245
       6550.0578       1.0446453
       6550.0752       1.0455608
       6550.0926       1.0464318
       6550.1100       1.0472198
       6550.1274       1.0478717
       6550.1448       1.0483197
       6550.1622       1.0484982
       6550.1797       1.0483700
       6550.1971       1.0479487
       6550.2145       1.0473025
       6550.2319       1.0465400
       6550.2493       1.0457809
       6550.2667       1.0451258
       6550.2841       1.0446380
       6550.3015       1.0443407
       6550.3189       1.0442288
       6550.3363       1.0442809
       6550.3538       1.0444735
       6550.3712       1.0447825
       6550.3886       1.0451783
       6550.4060       1.0456202
       6550.4234       1.0460545
       6550.4408       1.0464209
       6550.4582       1.0466674
       6550.4756       1.0467699
       6550.4930       1.0467515
       6550.5104       1.0466883
       6550.5279       1.0466961
       6550.5453       1.0468953
       6550.5627       1.0473685
       6550.5801       1.0481275
       6550.5975       1.0491081
       6550.6149       1.0501979
       6550.6323       1.0512831
       6550.6497       1.0522914
       6550.6671       1.0532089
       6550.6846       1.0540629
       6550.7020       1.0548799
       6550.7194       1.0556441
       6550.7368       1.0562782
       6550.7542       1.0566597
       6550.7716       1.0566664
       6550.7890       1.0562299
       6550.8064       1.0553771
       6550.8238       1.0542405
       6550.8412       1.0530360
       6550.8587       1.0520160
       6550.8761       1.0514125
       6550.8935       1.0513865
       6550.9109       1.0519925
       6550.9283       1.0531681
       6550.9457       1.0547477
       6550.9631       1.0564994
       6550.9805       1.0581740
       6550.9979       1.0595620
       6551.0153       1.0605298
       6551.0328       1.0610367
       6551.0502       1.0611311
       6551.0676       1.0609325
       6551.0850       1.0606045
       6551.1024       1.0603248
       6551.1198       1.0602515
       6551.1372       1.0604896
       6551.1546       1.0610624
       6551.1720       1.0618970
       6551.1894       1.0628340
       6551.2069       1.0636618
       6551.2243       1.0641725
       6551.2417       1.0642223
       6551.2591       1.0637793
       6551.2765       1.0629388
       6551.2939       1.0618982
       6551.3113       1.0608940
       6551.3287       1.0601232
       6551.3461       1.0596742
       6551.3635       1.0594974
       6551.3810       1.0594247
       6551.3984       1.0592334
       6551.4158       1.0587282
       6551.4332       1.0578107
       6551.4506       1.0565124
       6551.4680       1.0549834
       6551.4854       1.0534445
       6551.5028       1.0521236
       6551.5202       1.0511996
       6551.5377       1.0507698
       6551.5551       1.0508469
       6551.5725       1.0513810
       6551.5899       1.0522925
       6551.6073       1.0535017
       6551.6247       1.0549434
       6551.6421       1.0565612
       6551.6595       1.0582949
       6551.6769       1.0600611
       6551.6943       1.0617437
       6551.7118       1.0631986
       6551.7292       1.0642732
       6551.7466       1.0648352
       6551.7640       1.0648044
       6551.7814       1.0641786
       6551.7988       1.0630477
       6551.8162       1.0615907
       6551.8336       1.0600517
       6551.8510       1.0586970
       6551.8684       1.0577585
       6551.8859       1.0573749
       6551.9033       1.0575496
       6551.9207       1.0581418
       6551.9381       1.0588994
       6551.9555       1.0595289
       6551.9729       1.0597782
       6551.9903       1.0595032
       6552.0077       1.0586952
       6552.0251       1.0574622
       6552.0425       1.0559785
       6552.0600       1.0544287
       6552.0774       1.0529677
       6552.0948       1.0517083
       6552.1122       1.0507340
       6552.1296       1.0501220
       6552.1470       1.0499576
       6552.1644       1.0503312
       6552.1818       1.0513135
       6552.1992       1.0529218
       6552.2167       1.0550936
       6552.2341       1.0576836
       6552.2515       1.0604887
       6552.2689       1.0632929
       6552.2863       1.0659140
       6552.3037       1.0682358
       6552.3211       1.0702066
       6552.3385       1.0718164
       6552.3559       1.0730671
       6552.3733       1.0739522
       6552.3908       1.0744581
       6552.4082       1.0745822
       6552.4256       1.0743555
       6552.4430       1.0738516
       6552.4604       1.0731756
       6552.4778       1.0724380
       6552.4952       1.0717301
       6552.5126       1.0711153
       6552.5300       1.0706417
       6552.5474       1.0703649
       6552.5649       1.0703630
       6552.5823       1.0707290
       6552.5997       1.0715364
       6552.6171       1.0727945
       6552.6345       1.0744156
       6552.6519       1.0762184
       6552.6693       1.0779717
       6552.6867       1.0794661
       6552.7041       1.0805830
       6552.7215       1.0813328
       6552.7390       1.0818472
       6552.7564       1.0823316
       6552.7738       1.0829993
       6552.7912       1.0840091
       6552.8086       1.0854260
       6552.8260       1.0872072
       6552.8434       1.0892128
       6552.8608       1.0912320
       6552.8782       1.0930234
       6552.8956       1.0943597
       6552.9131       1.0950701
       6552.9305       1.0950712
       6552.9479       1.0943825
       6552.9653       1.0931023
       6552.9827       1.0913763
       6553.0001       1.0893574
       6553.0175       1.0871703
       6553.0349       1.0848897
       6553.0523       1.0825369
       6553.0698       1.0800942
       6553.0872       1.0775322
       6553.1046       1.0748416
       6553.1220       1.0720595
       6553.1394       1.0692789
       6553.1568       1.0666402
       6553.1742       1.0643073
       6553.1916       1.0624360
       6553.2090       1.0611447
       6553.2264       1.0604939
       6553.2439       1.0604784
       6553.2613       1.0610314
       6553.2787       1.0620402
       6553.2961       1.0633686
       6553.3135       1.0648797
       6553.3309       1.0664549
       6553.3483       1.0680010
       6553.3657       1.0694488
       6553.3831       1.0707470
       6553.4005       1.0718580
       6553.4180       1.0727603
       6553.4354       1.0734557
       6553.4528       1.0739749
       6553.4702       1.0743764
       6553.4876       1.0747346
       6553.5050       1.0751193
       6553.5224       1.0755737
       6553.5398       1.0760986
       6553.5572       1.0766514
       6553.5746       1.0771628
       6553.5921       1.0775717
       6553.6095       1.0778633
       6553.6269       1.0780952
       6553.6443       1.0783998
       6553.6617       1.0789549
       6553.6791       1.0799333
       6553.6965       1.0814454
       6553.7139       1.0834983
       6553.7313       1.0859838
       6553.7487       1.0886998
       6553.7662       1.0913945
       6553.7836       1.0938192
       6553.8010       1.0957735
       6553.8184       1.0971326
       6553.8358       1.0978569
       6553.8532       1.0979869
       6553.8706       1.0976287
       6553.8880       1.0969322
       6553.9054       1.0960625
       6553.9229       1.0951659
       6553.9403       1.0943380
       6553.9577       1.0936072
       6553.9751       1.0929404
       6553.9925       1.0922723
       6554.0099       1.0915437
       6554.0273       1.0907310
       6554.0447       1.0898526
       6554.0621       1.0889520
       6554.0795       1.0880713
       6554.0970       1.0872299
       6554.1144       1.0864197
       6554.1318       1.0856157
       6554.1492       1.0847928
       6554.1666       1.0839394
       6554.1840       1.0830643
       6554.2014       1.0821964
       6554.2188       1.0813813
       6554.2362       1.0806749
       6554.2536       1.0801319
       6554.2711       1.0797945
       6554.2885       1.0796814
       6554.3059       1.0797817
       6554.3233       1.0800563
       6554.3407       1.0804472
       6554.3581       1.0808907
       6554.3755       1.0813320
       6554.3929       1.0817372
       6554.4103       1.0820992
       6554.4277       1.0824350
       6554.4452       1.0827764
       6554.4626       1.0831561
       6554.4800       1.0835945
       6554.4974       1.0840907
       6554.5148       1.0846203
       6554.5322       1.0851420
       6554.5496       1.0856128
       6554.5670       1.0860107
       6554.5844       1.0863591
       6554.6018       1.0867435
       6554.6193       1.0873111
       6554.6367       1.0882472
       6554.6541       1.0897317
       6554.6715       1.0918885
       6554.6889       1.0947448
       6554.7063       1.0982163
       6554.7237       1.1021233
       6554.7411       1.1062359
       6554.7585       1.1103305
       6554.7760       1.1142421
       6554.7934       1.1178967
       6554.8108       1.1213169
       6554.8282       1.1246005
       6554.8456       1.1278787
       6554.8630       1.1312657
       6554.8804       1.1348112
       6554.8978       1.1384637
       6554.9152       1.1420734
       6554.9326       1.1454216
       6554.9501       1.1482740
       6554.9675       1.1504387
       6554.9849       1.1518089
       6555.0023       1.1523774
       6555.0197       1.1522208
       6555.0371       1.1514618
       6555.0545       1.1502234
       6555.0719       1.1485900
       6555.0893       1.1465855
       6555.1067       1.1441761
       6555.1242       1.1412970
       6555.1416       1.1378953
       6555.1590       1.1339726
       6555.1764       1.1296084
       6555.1938       1.1249514
       6555.2112       1.1201792
       6555.2286       1.1154447
       6555.2460       1.1108318
       6555.2634       1.1063441
       6555.2808       1.1019321
       6555.2983       1.0975456
       6555.3157       1.0931862
       6555.3331       1.0889352
       6555.3505       1.0849419
       6555.3679       1.0813785
       6555.3853       1.0783802
       6555.4027       1.0759985
       6555.4201       1.0741839
       6555.4375       1.0728052
       6555.4549       1.0716914
       6555.4724       1.0706813
       6555.4898       1.0696638
