# Angstrom [air],  flux [abs.cor.cont.sub+1]
       6544.9962       1.0061207
       6545.0136       1.0023179
       6545.0310      0.99907958
       6545.0484      0.99677007
       6545.0658      0.99558447
       6545.0832      0.99552752
       6545.1006      0.99645309
       6545.1180      0.99813495
       6545.1355       1.0003288
       6545.1529       1.0028000
       6545.1703       1.0053187
       6545.1877       1.0076473
       6545.2051       1.0095524
       6545.2225       1.0108398
       6545.2399       1.0114080
       6545.2573       1.0112903
       6545.2747       1.0106577
       6545.2921       1.0097757
       6545.3096       1.0089232
       6545.3270       1.0083037
       6545.3444       1.0079848
       6545.3618       1.0078933
       6545.3792       1.0078736
       6545.3966       1.0077911
       6545.4140       1.0076367
       6545.4314       1.0075863
       6545.4488       1.0079811
       6545.4663       1.0092315
       6545.4837       1.0116793
       6545.5011       1.0154782
       6545.5185       1.0205457
       6545.5359       1.0266113
       6545.5533       1.0333383
       6545.5707       1.0404646
       6545.5881       1.0478971
       6545.6055       1.0557200
       6545.6229       1.0641233
       6545.6404       1.0732925
       6545.6578       1.0833136
       6545.6752       1.0941289
       6545.6926       1.1055435
       6545.7100       1.1172580
       6545.7274       1.1289029
       6545.7448       1.1400633
       6545.7622       1.1503044
       6545.7796       1.1592082
       6545.7971       1.1664254
       6545.8145       1.1717273
       6545.8319       1.1750388
       6545.8493       1.1764517
       6545.8667       1.1761704
       6545.8841       1.1744529
       6545.9015       1.1715353
       6545.9189       1.1675649
       6545.9363       1.1625577
       6545.9537       1.1564009
       6545.9712       1.1489039
       6545.9886       1.1398903
       6546.0060       1.1292991
       6546.0234       1.1172518
       6546.0408       1.1040521
       6546.0582       1.0901105
       6546.0756       1.0758228
       6546.0930       1.0614557
       6546.1104       1.0470890
       6546.1278       1.0326364
       6546.1453       1.0179337
       6546.1627       1.0028561
       6546.1801      0.98742444
       6546.1975      0.97187055
       6546.2149      0.95664885
       6546.2323      0.94239106
       6546.2497      0.92980984
       6546.2671      0.91956745
       6546.2845      0.91213940
       6546.3020      0.90771175
       6546.3194      0.90614551
       6546.3368      0.90702019
       6546.3542      0.90974060
       6546.3716      0.91367013
       6546.3890      0.91824843
       6546.4064      0.92306262
       6546.4238      0.92786127
       6546.4412      0.93252200
       6546.4586      0.93699879
       6546.4761      0.94127746
       6546.4935      0.94536495
       6546.5109      0.94929957
       6546.5283      0.95316943
       6546.5457      0.95711294
       6546.5631      0.96128912
       6546.5805      0.96582857
       6546.5979      0.97078745
       6546.6153      0.97612316
       6546.6328      0.98169746
       6546.6502      0.98730117
       6546.6676      0.99269205
       6546.6850      0.99763866
       6546.7024       1.0019628
       6546.7198       1.0055697
       6546.7372       1.0084529
       6546.7546       1.0106700
       6546.7720       1.0122944
       6546.7894       1.0133645
       6546.8069       1.0138522
       6546.8243       1.0136702
       6546.8417       1.0127185
       6546.8591       1.0109574
       6546.8765       1.0084807
       6546.8939       1.0055558
       6546.9113       1.0026086
       6546.9287       1.0001485
       6546.9461      0.99865289
       6546.9635      0.99845079
       6546.9810      0.99964445
       6546.9984       1.0020952
       6547.0158       1.0054731
       6547.0332       1.0093485
       6547.0506       1.0132909
       6547.0680       1.0169434
       6547.0854       1.0200541
       6547.1028       1.0224655
       6547.1202       1.0240788
       6547.1377       1.0248231
       6547.1551       1.0246632
       6547.1725       1.0236133
       6547.1899       1.0217774
       6547.2073       1.0193613
       6547.2247       1.0166438
       6547.2421       1.0139122
       6547.2595       1.0113915
       6547.2769       1.0092050
       6547.2943       1.0073821
       6547.3118       1.0059046
       6547.3292       1.0047605
       6547.3466       1.0039748
       6547.3640       1.0036032
       6547.3814       1.0036980
       6547.3988       1.0042699
       6547.4162       1.0052644
       6547.4336       1.0065639
       6547.4510       1.0080128
       6547.4685       1.0094554
       6547.4859       1.0107771
       6547.5033       1.0119381
       6547.5207       1.0129896
       6547.5381       1.0140611
       6547.5555       1.0153163
       6547.5729       1.0168860
       6547.5903       1.0188000
       6547.6077       1.0209470
       6547.6251       1.0230850
       6547.6426       1.0249031
       6547.6600       1.0261169
       6547.6774       1.0265602
       6547.6948       1.0262388
       6547.7122       1.0253291
       6547.7296       1.0241226
       6547.7470       1.0229416
       6547.7644       1.0220544
       6547.7818       1.0216135
       6547.7992       1.0216173
       6547.8167       1.0219202
       6547.8341       1.0222719
       6547.8515       1.0223840
       6547.8689       1.0220170
       6547.8863       1.0210670
       6547.9037       1.0196201
       6547.9211       1.0179457
       6547.9385       1.0164156
       6547.9559       1.0153732
       6547.9734       1.0150039
       6547.9908       1.0152691
       6548.0082       1.0159384
       6548.0256       1.0167051
       6548.0430       1.0173272
       6548.0604       1.0177205
       6548.0778       1.0179605
       6548.0952       1.0182032
       6548.1126       1.0185739
       6548.1300       1.0190841
       6548.1475       1.0196123
       6548.1649       1.0199469
       6548.1823       1.0198621
       6548.1997       1.0191980
       6548.2171       1.0179185
       6548.2345       1.0161375
       6548.2519       1.0141038
       6548.2693       1.0121426
       6548.2867       1.0105639
       6548.3042       1.0095613
       6548.3216       1.0091440
       6548.3390       1.0091313
       6548.3564       1.0092204
       6548.3738       1.0091010
       6548.3912       1.0085718
       6548.4086       1.0076143
       6548.4260       1.0063983
       6548.4434       1.0052265
       6548.4608       1.0044292
       6548.4783       1.0042587
       6548.4957       1.0048170
       6548.5131       1.0060389
       6548.5305       1.0077369
       6548.5479       1.0096866
       6548.5653       1.0117113
       6548.5827       1.0137182
       6548.6001       1.0156675
       6548.6175       1.0174921
       6548.6349       1.0190218
       6548.6524       1.0199666
       6548.6698       1.0199812
       6548.6872       1.0187920
       6548.7046       1.0163270
       6548.7220       1.0127911
       6548.7394       1.0086524
       6548.7568       1.0045426
       6548.7742       1.0011064
       6548.7916      0.99885036
       6548.8091      0.99803548
       6548.8265      0.99864221
       6548.8439       1.0004146
       6548.8613       1.0029675
       6548.8787       1.0059213
       6548.8961       1.0090194
       6548.9135       1.0121863
       6548.9309       1.0155032
       6548.9483       1.0191100
       6548.9657       1.0230729
       6548.9832       1.0272772
       6549.0006       1.0313984
       6549.0180       1.0349735
       6549.0354       1.0375495
       6549.0528       1.0388507
       6549.0702       1.0388914
       6549.0876       1.0379814
       6549.1050       1.0366367
       6549.1224       1.0353863
       6549.1398       1.0346133
       6549.1573       1.0344615
       6549.1747       1.0348351
       6549.1921       1.0354765
       6549.2095       1.0360712
       6549.2269       1.0363356
       6549.2443       1.0360619
       6549.2617       1.0351239
       6549.2791       1.0334659
       6549.2965       1.0310965
       6549.3140       1.0280993
       6549.3314       1.0246506
       6549.3488       1.0210230
       6549.3662       1.0175488
       6549.3836       1.0145404
       6549.4010       1.0121887
       6549.4184       1.0104880
       6549.4358       1.0092346
       6549.4532       1.0081130
       6549.4706       1.0068387
       6549.4881       1.0052916
       6549.5055       1.0035722
       6549.5229       1.0019577
       6549.5403       1.0007836
       6549.5577       1.0003152
       6549.5751       1.0006679
       6549.5925       1.0017967
       6549.6099       1.0035386
       6549.6273       1.0056672
       6549.6448       1.0079371
       6549.6622       1.0101143
       6549.6796       1.0120059
       6549.6970       1.0134896
       6549.7144       1.0145316
       6549.7318       1.0151757
       6549.7492       1.0155114
       6549.7666       1.0156360
       6549.7840       1.0156440
       6549.8014       1.0156504
       6549.8189       1.0158182
       6549.8363       1.0163536
       6549.8537       1.0174494
       6549.8711       1.0191963
       6549.8885       1.0215103
       6549.9059       1.0241229
       6549.9233       1.0266549
       6549.9407       1.0287466
       6549.9581       1.0301878
       6549.9755       1.0309892
       6549.9930       1.0313627
       6550.0104       1.0316261
       6550.0278       1.0320766
       6550.0452       1.0328852
       6550.0626       1.0340433
       6550.0800       1.0353634
       6550.0974       1.0365149
       6550.1148       1.0370799
       6550.1322       1.0366253
       6550.1497       1.0347946
       6550.1671       1.0314153
       6550.1845       1.0265946
       6550.2019       1.0207647
       6550.2193       1.0146393
       6550.2367       1.0090781
       6550.2541       1.0048893
       6550.2715       1.0026367
       6550.2889       1.0025192
       6550.3063       1.0043648
       6550.3238       1.0077340
       6550.3412       1.0120814
       6550.3586       1.0169026
       6550.3760       1.0218121
       6550.3934       1.0265328
       6550.4108       1.0308425
       6550.4282       1.0345169
       6550.4456       1.0373244
       6550.4630       1.0390768
       6550.4805       1.0397034
       6550.4979       1.0393072
       6550.5153       1.0381741
       6550.5327       1.0367275
       6550.5501       1.0354438
       6550.5675       1.0347499
       6550.5849       1.0349238
       6550.6023       1.0360255
       6550.6197       1.0378777
       6550.6371       1.0401125
       6550.6546       1.0422725
       6550.6720       1.0439348
       6550.6894       1.0448115
       6550.7068       1.0447942
       6550.7242       1.0439340
       6550.7416       1.0423820
       6550.7590       1.0403232
       6550.7764       1.0379362
       6550.7938       1.0353865
       6550.8112       1.0328437
       6550.8287       1.0305007
       6550.8461       1.0285781
       6550.8635       1.0273017
       6550.8809       1.0268560
       6550.8983       1.0273264
       6550.9157       1.0286526
       6550.9331       1.0306207
       6550.9505       1.0329107
       6550.9679       1.0351943
       6550.9854       1.0372455
       6551.0028       1.0390116
       6551.0202       1.0406012
       6551.0376       1.0421904
       6551.0550       1.0438913
       6551.0724       1.0456584
       6551.0898       1.0472921
       6551.1072       1.0485317
       6551.1246       1.0491818
       6551.1420       1.0491994
       6551.1595       1.0487004
       6551.1769       1.0478954
       6551.1943       1.0470046
       6551.2117       1.0462010
       6551.2291       1.0455947
       6551.2465       1.0452390
       6551.2639       1.0451297
       6551.2813       1.0451953
       6551.2987       1.0452986
       6551.3162       1.0452775
       6551.3336       1.0450252
       6551.3510       1.0445708
       6551.3684       1.0441046
       6551.3858       1.0439165
       6551.4032       1.0442624
       6551.4206       1.0452237
       6551.4380       1.0466356
       6551.4554       1.0481283
       6551.4728       1.0492685
       6551.4903       1.0497386
       6551.5077       1.0494712
       6551.5251       1.0486835
       6551.5425       1.0477976
       6551.5599       1.0472880
       6551.5773       1.0475189
       6551.5947       1.0486352
       6551.6121       1.0505367
       6551.6295       1.0529313
       6551.6469       1.0554308
       6551.6644       1.0576497
       6551.6818       1.0592744
       6551.6992       1.0600894
       6551.7166       1.0599872
       6551.7340       1.0589322
       6551.7514       1.0569481
       6551.7688       1.0541192
       6551.7862       1.0506067
       6551.8036       1.0466631
       6551.8211       1.0426220
       6551.8385       1.0388525
       6551.8559       1.0356894
       6551.8733       1.0333642
       6551.8907       1.0319653
       6551.9081       1.0314409
       6551.9255       1.0316350
       6551.9429       1.0323395
       6551.9603       1.0333401
       6551.9777       1.0344482
       6551.9952       1.0355154
       6552.0126       1.0364366
       6552.0300       1.0371459
       6552.0474       1.0376083
       6552.0648       1.0378144
       6552.0822       1.0377775
       6552.0996       1.0375373
       6552.1170       1.0371650
       6552.1344       1.0367696
       6552.1519       1.0365016
       6552.1693       1.0365534
       6552.1867       1.0371485
       6552.2041       1.0385092
       6552.2215       1.0407921
       6552.2389       1.0440070
       6552.2563       1.0479527
       6552.2737       1.0522144
       6552.2911       1.0562480
       6552.3085       1.0595305
       6552.3260       1.0617198
       6552.3434       1.0627480
       6552.3608       1.0628328
       6552.3782       1.0623549
       6552.3956       1.0616939
       6552.4130       1.0610815
       6552.4304       1.0605209
       6552.4478       1.0598061
       6552.4652       1.0586322
       6552.4826       1.0567502
       6552.5001       1.0541019
       6552.5175       1.0508778
       6552.5349       1.0474760
       6552.5523       1.0443829
       6552.5697       1.0420297
       6552.5871       1.0406796
       6552.6045       1.0403839
       6552.6219       1.0410139
       6552.6393       1.0423462
       6552.6568       1.0441672
       6552.6742       1.0463570
       6552.6916       1.0489215
       6552.7090       1.0519620
       6552.7264       1.0555939
       6552.7438       1.0598491
       6552.7612       1.0646054
       6552.7786       1.0695757
       6552.7960       1.0743638
       6552.8134       1.0785604
       6552.8309       1.0818389
       6552.8483       1.0840130
       6552.8657       1.0850443
       6552.8831       1.0850152
       6552.9005       1.0840924
       6552.9179       1.0825017
       6552.9353       1.0805135
       6552.9527       1.0784276
       6552.9701       1.0765457
       6552.9875       1.0751326
       6553.0050       1.0743727
       6553.0224       1.0743260
       6553.0398       1.0749292
       6553.0572       1.0760128
       6553.0746       1.0773511
       6553.0920       1.0787338
       6553.1094       1.0800315
       6553.1268       1.0812252
       6553.1442       1.0823721
       6553.1617       1.0835135
       6553.1791       1.0845651
       6553.1965       1.0852538
       6553.2139       1.0851510
       6553.2313       1.0838086
       6553.2487       1.0809460
       6553.2661       1.0766025
       6553.2835       1.0711804
       6553.3009       1.0653547
       6553.3183       1.0598844
       6553.3358       1.0554058
       6553.3532       1.0522847
       6553.3706       1.0505770
       6553.3880       1.0500917
       6553.4054       1.0505149
       6553.4228       1.0515381
       6553.4402       1.0529456
       6553.4576       1.0546440
       6553.4750       1.0566396
       6553.4925       1.0589858
       6553.5099       1.0617253
       6553.5273       1.0648474
       6553.5447       1.0682711
       6553.5621       1.0718521
       6553.5795       1.0754046
       6553.5969       1.0787269
       6553.6143       1.0816250
       6553.6317       1.0839383
       6553.6491       1.0855629
       6553.6666       1.0864855
       6553.6840       1.0867685
       6553.7014       1.0865078
       6553.7188       1.0857647
       6553.7362       1.0845099
       6553.7536       1.0826231
       6553.7710       1.0799673
       6553.7884       1.0765152
       6553.8058       1.0724644
       6553.8232       1.0682812
       6553.8407       1.0646375
       6553.8581       1.0622565
       6553.8755       1.0617219
       6553.8929       1.0633163
       6553.9103       1.0669392
       6553.9277       1.0721233
       6553.9451       1.0781327
       6553.9625       1.0841092
       6553.9799       1.0892283
       6553.9974       1.0928311
       6554.0148       1.0945149
       6554.0322       1.0941716
       6554.0496       1.0919774
       6554.0670       1.0883406
       6554.0844       1.0838232
       6554.1018       1.0790550
       6554.1192       1.0746530
       6554.1366       1.0711531
       6554.1540       1.0689548
       6554.1715       1.0682777
       6554.1889       1.0691324
       6554.2063       1.0713159
       6554.2237       1.0744398
       6554.2411       1.0779934
       6554.2585       1.0814336
       6554.2759       1.0842861
       6554.2933       1.0862377
       6554.3107       1.0872088
       6554.3282       1.0873766
       6554.3456       1.0871117
       6554.3630       1.0868694
       6554.3804       1.0870441
       6554.3978       1.0878438
       6554.4152       1.0892339
       6554.4326       1.0909675
       6554.4500       1.0926842
       6554.4674       1.0940299
       6554.4848       1.0947547
       6554.5023       1.0947676
       6554.5197       1.0941509
       6554.5371       1.0931422
       6554.5545       1.0920885
       6554.5719       1.0913687
       6554.5893       1.0912933
       6554.6067       1.0920082
       6554.6241       1.0934415
       6554.6415       1.0953235
       6554.6589       1.0972744
       6554.6764       1.0989220
       6554.6938       1.1000001
       6554.7112       1.1003928
       6554.7286       1.1001254
       6554.7460       1.0993213
       6554.7634       1.0981560
       6554.7808       1.0968201
       6554.7982       1.0954998
       6554.8156       1.0943729
       6554.8331       1.0936207
       6554.8505       1.0934485
       6554.8679       1.0940969
       6554.8853       1.0958162
       6554.9027       1.0987922
       6554.9201       1.1030396
       6554.9375       1.1083161
       6554.9549       1.1141204
       6554.9723       1.1197976
       6554.9897       1.1247599
       6555.0072       1.1286797
       6555.0246       1.1315872
       6555.0420       1.1338145
       6555.0594       1.1358051
       6555.0768       1.1378773
       6555.0942       1.1400451
       6555.1116       1.1419702
       6555.1290       1.1430542
       6555.1464       1.1426269
       6555.1639       1.1401560
       6555.1813       1.1354103
       6555.1987       1.1285305
       6555.2161       1.1199980
       6555.2335       1.1105191
       6555.2509       1.1008634
       6555.2683       1.0917026
       6555.2857       1.0834905
       6555.3031       1.0764112
       6555.3205       1.0704020
       6555.3380       1.0652403
       6555.3554       1.0606653
       6555.3728       1.0564956
       6555.3902       1.0527044
       6555.4076       1.0494262
       6555.4250       1.0468926
       6555.4424       1.0453252
       6555.4598       1.0448288
       6555.4772       1.0453316
       6555.4946       1.0465965
