# Angstrom [air],  flux [abs.cor.cont.sub+1]
       6544.9926       1.0208574
       6545.0100       1.0201933
       6545.0274       1.0199714
       6545.0448       1.0201460
       6545.0622       1.0205857
       6545.0797       1.0211270
       6545.0971       1.0216348
       6545.1145       1.0220469
       6545.1319       1.0223865
       6545.1493       1.0227376
       6545.1667       1.0232002
       6545.1841       1.0238461
       6545.2015       1.0246898
       6545.2189       1.0256819
       6545.2363       1.0267266
       6545.2538       1.0277155
       6545.2712       1.0285673
       6545.2886       1.0292612
       6545.3060       1.0298494
       6545.3234       1.0304467
       6545.3408       1.0311992
       6545.3582       1.0322475
       6545.3756       1.0336999
       6545.3930       1.0356259
       6545.4104       1.0380689
       6545.4279       1.0410657
       6545.4453       1.0446615
       6545.4627       1.0489104
       6545.4801       1.0538633
       6545.4975       1.0595521
       6545.5149       1.0659770
       6545.5323       1.0731032
       6545.5497       1.0808647
       6545.5671       1.0891715
       6545.5846       1.0979167
       6545.6020       1.1069827
       6545.6194       1.1162453
       6545.6368       1.1255797
       6545.6542       1.1348657
       6545.6716       1.1439923
       6545.6890       1.1528560
       6545.7064       1.1613518
       6545.7238       1.1693555
       6545.7412       1.1767077
       6545.7587       1.1832076
       6545.7761       1.1886245
       6545.7935       1.1927284
       6545.8109       1.1953285
       6545.8283       1.1962991
       6545.8457       1.1955858
       6545.8631       1.1931896
       6545.8805       1.1891400
       6545.8979       1.1834708
       6545.9153       1.1762094
       6545.9328       1.1673805
       6545.9502       1.1570205
       6545.9676       1.1451932
       6545.9850       1.1320042
       6546.0024       1.1176111
       6546.0198       1.1022305
       6546.0372       1.0861373
       6546.0546       1.0696515
       6546.0720       1.0531099
       6546.0894       1.0368293
       6546.1069       1.0210724
       6546.1243       1.0060319
       6546.1417      0.99183734
       6546.1591      0.97857742
       6546.1765      0.96632443
       6546.1939      0.95514836
       6546.2113      0.94511829
       6546.2287      0.93629730
       6546.2461      0.92873960
       6546.2636      0.92249318
       6546.2810      0.91760540
       6546.2984      0.91412616
       6546.3158      0.91210675
       6546.3332      0.91159589
       6546.3506      0.91263543
       6546.3680      0.91525491
       6546.3854      0.91946085
       6546.4028      0.92521627
       6546.4202      0.93241699
       6546.4377      0.94084468
       6546.4551      0.95016487
       6546.4725      0.95994178
       6546.4899      0.96968163
       6546.5073      0.97890296
       6546.5247      0.98721086
       6546.5421      0.99435082
       6546.5595       1.0002255
       6546.5769       1.0048739
       6546.5943       1.0084269
       6546.6118       1.0110613
       6546.6292       1.0129676
       6546.6466       1.0143355
       6546.6640       1.0153486
       6546.6814       1.0161775
       6546.6988       1.0169653
       6546.7162       1.0178110
       6546.7336       1.0187597
       6546.7510       1.0198077
       6546.7684       1.0209188
       6546.7859       1.0220415
       6546.8033       1.0231196
       6546.8207       1.0240933
       6546.8381       1.0249022
       6546.8555       1.0254996
       6546.8729       1.0258780
       6546.8903       1.0260954
       6546.9077       1.0262814
       6546.9251       1.0266111
       6546.9426       1.0272531
       6546.9600       1.0283079
       6546.9774       1.0297650
       6546.9948       1.0314930
       6547.0122       1.0332686
       6547.0296       1.0348313
       6547.0470       1.0359449
       6547.0644       1.0364487
       6547.0818       1.0362856
       6547.0992       1.0355108
       6547.1167       1.0342578
       6547.1341       1.0327035
       6547.1515       1.0310293
       6547.1689       1.0293932
       6547.1863       1.0279191
       6547.2037       1.0267026
       6547.2211       1.0258238
       6547.2385       1.0253563
       6547.2559       1.0253623
       6547.2733       1.0258750
       6547.2908       1.0268754
       6547.3082       1.0282759
       6547.3256       1.0299204
       6547.3430       1.0316059
       6547.3604       1.0331205
       6547.3778       1.0342868
       6547.3952       1.0350006
       6547.4126       1.0352512
       6547.4300       1.0351221
       6547.4474       1.0347708
       6547.4649       1.0343931
       6547.4823       1.0341782
       6547.4997       1.0342654
       6547.5171       1.0347129
       6547.5345       1.0354900
       6547.5519       1.0364966
       6547.5693       1.0376037
       6547.5867       1.0386979
       6547.6041       1.0397111
       6547.6216       1.0406254
       6547.6390       1.0414537
       6547.6564       1.0422114
       6547.6738       1.0428966
       6547.6912       1.0434871
       6547.7086       1.0439531
       6547.7260       1.0442740
       6547.7434       1.0444508
       6547.7608       1.0445014
       6547.7782       1.0444498
       6547.7957       1.0443161
       6547.8131       1.0441146
       6547.8305       1.0438594
       6547.8479       1.0435721
       6547.8653       1.0432819
       6547.8827       1.0430154
       6547.9001       1.0427820
       6547.9175       1.0425628
       6547.9349       1.0423147
       6547.9523       1.0419842
       6547.9698       1.0415244
       6547.9872       1.0408988
       6548.0046       1.0400687
       6548.0220       1.0389713
       6548.0394       1.0375066
       6548.0568       1.0355503
       6548.0742       1.0329963
       6548.0916       1.0298181
       6548.1090       1.0261251
       6548.1264       1.0221849
       6548.1439       1.0183980
       6548.1613       1.0152228
       6548.1787       1.0130714
       6548.1961       1.0122070
       6548.2135       1.0126780
       6548.2309       1.0143090
       6548.2483       1.0167541
       6548.2657       1.0195916
       6548.2831       1.0224297
       6548.3006       1.0249894
       6548.3180       1.0271452
       6548.3354       1.0289143
       6548.3528       1.0304090
       6548.3702       1.0317689
       6548.3876       1.0331012
       6548.4050       1.0344432
       6548.4224       1.0357621
       6548.4398       1.0369831
       6548.4572       1.0380299
       6548.4747       1.0388582
       6548.4921       1.0394698
       6548.5095       1.0399055
       6548.5269       1.0402256
       6548.5443       1.0404887
       6548.5617       1.0407413
       6548.5791       1.0410180
       6548.5965       1.0413508
       6548.6139       1.0417772
       6548.6313       1.0423416
       6548.6488       1.0430880
       6548.6662       1.0440461
       6548.6836       1.0452204
       6548.7010       1.0465850
       6548.7184       1.0480884
       6548.7358       1.0496644
       6548.7532       1.0512444
       6548.7706       1.0527667
       6548.7880       1.0541794
       6548.8054       1.0554383
       6548.8229       1.0565008
       6548.8403       1.0573211
       6548.8577       1.0578496
       6548.8751       1.0580408
       6548.8925       1.0578691
       6548.9099       1.0573476
       6548.9273       1.0565407
       6548.9447       1.0555600
       6548.9621       1.0545392
       6548.9796       1.0535955
       6548.9970       1.0527908
       6549.0144       1.0521121
       6549.0318       1.0514836
       6549.0492       1.0508026
       6549.0666       1.0499914
       6549.0840       1.0490291
       6549.1014       1.0479547
       6549.1188       1.0468412
       6549.1362       1.0457580
       6549.1537       1.0447414
       6549.1711       1.0437898
       6549.1885       1.0428833
       6549.2059       1.0420140
       6549.2233       1.0412089
       6549.2407       1.0405347
       6549.2581       1.0400797
       6549.2755       1.0399240
       6549.2929       1.0401066
       6549.3103       1.0406029
       6549.3278       1.0413184
       6549.3452       1.0421007
       6549.3626       1.0427706
       6549.3800       1.0431636
       6549.3974       1.0431725
       6549.4148       1.0427787
       6549.4322       1.0420625
       6549.4496       1.0411882
       6549.4670       1.0403678
       6549.4844       1.0398122
       6549.5019       1.0396827
       6549.5193       1.0400522
       6549.5367       1.0408890
       6549.5541       1.0420653
       6549.5715       1.0433916
       6549.5889       1.0446657
       6549.6063       1.0457238
       6549.6237       1.0464777
       6549.6411       1.0469289
       6549.6586       1.0471566
       6549.6760       1.0472882
       6549.6934       1.0474606
       6549.7108       1.0477811
       6549.7282       1.0483044
       6549.7456       1.0490246
       6549.7630       1.0498828
       6549.7804       1.0507848
       6549.7978       1.0516219
       6549.8152       1.0522905
       6549.8327       1.0527085
       6549.8501       1.0528273
       6549.8675       1.0526390
       6549.8849       1.0521757
       6549.9023       1.0514997
       6549.9197       1.0506859
       6549.9371       1.0498022
       6549.9545       1.0488988
       6549.9719       1.0480085
       6549.9893       1.0471598
       6550.0068       1.0463916
       6550.0242       1.0457600
       6550.0416       1.0453327
       6550.0590       1.0451710
       6550.0764       1.0453080
       6550.0938       1.0457339
       6550.1112       1.0463916
       6550.1286       1.0471862
       6550.1460       1.0480019
       6550.1635       1.0487236
       6550.1809       1.0492580
       6550.1983       1.0495499
       6550.2157       1.0495901
       6550.2331       1.0494118
       6550.2505       1.0490768
       6550.2679       1.0486558
       6550.2853       1.0482119
       6550.3027       1.0477936
       6550.3201       1.0474369
       6550.3376       1.0471720
       6550.3550       1.0470221
       6550.3724       1.0469980
       6550.3898       1.0470875
       6550.4072       1.0472526
       6550.4246       1.0474410
       6550.4420       1.0476103
       6550.4594       1.0477530
       6550.4768       1.0479090
       6550.4942       1.0481556
       6550.5117       1.0485790
       6550.5291       1.0492396
       6550.5465       1.0501453
       6550.5639       1.0512442
       6550.5813       1.0524364
       6550.5987       1.0536003
       6550.6161       1.0546240
       6550.6335       1.0554311
       6550.6509       1.0559949
       6550.6683       1.0563354
       6550.6858       1.0565010
       6550.7032       1.0565429
       6550.7206       1.0564947
       6550.7380       1.0563673
       6550.7554       1.0561645
       6550.7728       1.0559071
       6550.7902       1.0556508
       6550.8076       1.0554826
       6550.8250       1.0554906
       6550.8425       1.0557229
       6550.8599       1.0561547
       6550.8773       1.0566859
       6550.8947       1.0571739
       6550.9121       1.0574900
       6550.9295       1.0575741
       6550.9469       1.0574639
       6550.9643       1.0572837
       6550.9817       1.0571992
       6550.9991       1.0573518
       6551.0166       1.0578006
       6551.0340       1.0585002
       6551.0514       1.0593148
       6551.0688       1.0600657
       6551.0862       1.0605913
       6551.1036       1.0607947
       6551.1210       1.0606612
       6551.1384       1.0602417
       6551.1558       1.0596129
       6551.1732       1.0588380
       6551.1907       1.0579477
       6551.2081       1.0569486
       6551.2255       1.0558538
       6551.2429       1.0547136
       6551.2603       1.0536285
       6551.2777       1.0527332
       6551.2951       1.0521585
       6551.3125       1.0519896
       6551.3299       1.0522405
       6551.3473       1.0528530
       6551.3648       1.0537167
       6551.3822       1.0546937
       6551.3996       1.0556362
       6551.4170       1.0563920
       6551.4344       1.0568073
       6551.4518       1.0567369
       6551.4692       1.0560680
       6551.4866       1.0547540
       6551.5040       1.0528443
       6551.5215       1.0504965
       6551.5389       1.0479628
       6551.5563       1.0455521
       6551.5737       1.0435787
       6551.5911       1.0423087
       6551.6085       1.0419198
       6551.6259       1.0424811
       6551.6433       1.0439575
       6551.6607       1.0462184
       6551.6781       1.0490819
       6551.6956       1.0523323
       6551.7130       1.0557311
       6551.7304       1.0590202
       6551.7478       1.0619292
       6551.7652       1.0641976
       6551.7826       1.0656153
       6551.8000       1.0660715
       6551.8174       1.0655937
       6551.8348       1.0643596
       6551.8522       1.0626739
       6551.8697       1.0609133
       6551.8871       1.0594554
       6551.9045       1.0586078
       6551.9219       1.0585543
       6551.9393       1.0593280
       6551.9567       1.0608132
       6551.9741       1.0627708
       6551.9915       1.0648806
       6552.0089       1.0667895
       6552.0263       1.0681592
       6552.0438       1.0687086
       6552.0612       1.0682494
       6552.0786       1.0667156
       6552.0960       1.0641859
       6552.1134       1.0608913
       6552.1308       1.0572008
       6552.1482       1.0535748
       6552.1656       1.0504882
       6552.1830       1.0483366
       6552.2005       1.0473546
       6552.2179       1.0475740
       6552.2353       1.0488381
       6552.2527       1.0508646
       6552.2701       1.0533316
       6552.2875       1.0559526
       6552.3049       1.0585184
       6552.3223       1.0609057
       6552.3397       1.0630545
       6552.3571       1.0649439
       6552.3746       1.0665751
       6552.3920       1.0679666
       6552.4094       1.0691556
       6552.4268       1.0701966
       6552.4442       1.0711536
       6552.4616       1.0720838
       6552.4790       1.0730195
       6552.4964       1.0739547
       6552.5138       1.0748445
       6552.5312       1.0756202
       6552.5487       1.0762161
       6552.5661       1.0765980
       6552.5835       1.0767806
       6552.6009       1.0768246
       6552.6183       1.0768128
       6552.6357       1.0768184
       6552.6531       1.0768804
       6552.6705       1.0769989
       6552.6879       1.0771541
       6552.7053       1.0773370
       6552.7228       1.0775741
       6552.7402       1.0779323
       6552.7576       1.0784977
       6552.7750       1.0793400
       6552.7924       1.0804766
       6552.8098       1.0818545
       6552.8272       1.0833570
       6552.8446       1.0848320
       6552.8620       1.0861310
       6552.8795       1.0871449
       6552.8969       1.0878240
       6552.9143       1.0881794
       6552.9317       1.0882670
       6552.9491       1.0881655
       6552.9665       1.0879569
       6552.9839       1.0877136
       6553.0013       1.0874958
       6553.0187       1.0873466
       6553.0361       1.0872840
       6553.0536       1.0872910
       6553.0710       1.0873115
       6553.0884       1.0872613
       6553.1058       1.0870518
       6553.1232       1.0866168
       6553.1406       1.0859286
       6553.1580       1.0849916
       6553.1754       1.0838194
       6553.1928       1.0824091
       6553.2102       1.0807309
       6553.2277       1.0787453
       6553.2451       1.0764428
       6553.2625       1.0738902
       6553.2799       1.0712604
       6553.2973       1.0688285
       6553.3147       1.0669281
       6553.3321       1.0658783
       6553.3495       1.0659033
       6553.3669       1.0670679
       6553.3843       1.0692506
       6553.4018       1.0721605
       6553.4192       1.0753951
       6553.4366       1.0785215
       6553.4540       1.0811632
       6553.4714       1.0830709
       6553.4888       1.0841621
       6553.5062       1.0845215
       6553.5236       1.0843636
       6553.5410       1.0839664
       6553.5585       1.0835941
       6553.5759       1.0834306
       6553.5933       1.0835452
       6553.6107       1.0838965
       6553.6281       1.0843846
       6553.6455       1.0849169
       6553.6629       1.0854617
       6553.6803       1.0860660
       6553.6977       1.0868328
       6553.7151       1.0878684
       6553.7326       1.0892271
       6553.7500       1.0908756
       6553.7674       1.0926918
       6553.7848       1.0944959
       6553.8022       1.0961022
       6553.8196       1.0973723
       6553.8370       1.0982551
       6553.8544       1.0987960
       6553.8718       1.0991156
       6553.8892       1.0993598
       6553.9067       1.0996391
       6553.9241       1.0999789
       6553.9415       1.1003005
       6553.9589       1.1004425
       6553.9763       1.1002173
       6553.9937       1.0994815
       6554.0111       1.0981930
       6554.0285       1.0964299
       6554.0459       1.0943629
       6554.0633       1.0921936
       6554.0808       1.0900857
       6554.0982       1.0881185
       6554.1156       1.0862812
       6554.1330       1.0845068
       6554.1504       1.0827244
       6554.1678       1.0809086
       6554.1852       1.0791061
       6554.2026       1.0774328
       6554.2200       1.0760465
       6554.2375       1.0751083
       6554.2549       1.0747398
       6554.2723       1.0749907
       6554.2897       1.0758354
       6554.3071       1.0771844
       6554.3245       1.0789106
       6554.3419       1.0808811
       6554.3593       1.0829826
       6554.3767       1.0851340
       6554.3941       1.0872859
       6554.4116       1.0894087
       6554.4290       1.0914747
       6554.4464       1.0934410
       6554.4638       1.0952388
       6554.4812       1.0967747
       6554.4986       1.0979463
       6554.5160       1.0986677
       6554.5334       1.0988977
       6554.5508       1.0986581
       6554.5682       1.0980351
       6554.5857       1.0971633
       6554.6031       1.0961977
       6554.6205       1.0952884
       6554.6379       1.0945658
       6554.6553       1.0941422
       6554.6727       1.0941226
       6554.6901       1.0946149
       6554.7075       1.0957272
       6554.7249       1.0975489
       6554.7423       1.1001207
       6554.7598       1.1034083
       6554.7772       1.1072928
       6554.7946       1.1115841
       6554.8120       1.1160553
       6554.8294       1.1204860
       6554.8468       1.1247004
       6554.8642       1.1285899
       6554.8816       1.1321158
       6554.8990       1.1352929
       6554.9165       1.1381670
       6554.9339       1.1407820
       6554.9513       1.1431627
       6554.9687       1.1453099
       6554.9861       1.1472086
       6555.0035       1.1488412
       6555.0209       1.1501989
       6555.0383       1.1512811
       6555.0557       1.1520811
       6555.0731       1.1525659
       6555.0906       1.1526598
       6555.1080       1.1522453
       6555.1254       1.1511848
       6555.1428       1.1493575
       6555.1602       1.1466958
       6555.1776       1.1432065
       6555.1950       1.1389701
       6555.2124       1.1341207
       6555.2298       1.1288195
       6555.2472       1.1232330
       6555.2647       1.1175223
       6555.2821       1.1118401
       6555.2995       1.1063294
       6555.3169       1.1011163
       6555.3343       1.0962994
       6555.3517       1.0919366
       6555.3691       1.0880384
       6555.3865       1.0845718
       6555.4039       1.0814760
       6555.4213       1.0786900
       6555.4388       1.0761814
       6555.4562       1.0739666
       6555.4736       1.0721108
       6555.4910       1.0707054
