# Angstrom [air],  flux [abs.cor.cont.sub+1]
       6544.9914       1.0225811
       6545.0088       1.0226276
       6545.0262       1.0228569
       6545.0436       1.0232887
       6545.0611       1.0239126
       6545.0785       1.0246809
       6545.0959       1.0255113
       6545.1133       1.0263056
       6545.1307       1.0269792
       6545.1481       1.0274851
       6545.1655       1.0278246
       6545.1829       1.0280377
       6545.2003       1.0281795
       6545.2177       1.0282939
       6545.2352       1.0283998
       6545.2526       1.0284945
       6545.2700       1.0285730
       6545.2874       1.0286523
       6545.3048       1.0287880
       6545.3222       1.0290751
       6545.3396       1.0296334
       6545.3570       1.0305857
       6545.3744       1.0320421
       6545.3918       1.0340978
       6545.4093       1.0368415
       6545.4267       1.0403656
       6545.4441       1.0447646
       6545.4615       1.0501186
       6545.4789       1.0564666
       6545.4963       1.0637838
       6545.5137       1.0719746
       6545.5311       1.0808852
       6545.5485       1.0903315
       6545.5660       1.1001305
       6545.5834       1.1101250
       6545.6008       1.1201963
       6545.6182       1.1302605
       6545.6356       1.1402527
       6545.6530       1.1501043
       6545.6704       1.1597197
       6545.6878       1.1689608
       6545.7052       1.1776428
       6545.7226       1.1855437
       6545.7401       1.1924243
       6545.7575       1.1980529
       6545.7749       1.2022340
       6545.7923       1.2048250
       6545.8097       1.2057422
       6545.8271       1.2049513
       6545.8445       1.2024476
       6545.8619       1.1982295
       6545.8793       1.1922807
       6545.8967       1.1845668
       6545.9142       1.1750544
       6545.9316       1.1637453
       6545.9490       1.1507161
       6545.9664       1.1361442
       6545.9838       1.1203117
       6546.0012       1.1035798
       6546.0186       1.0863430
       6546.0360       1.0689757
       6546.0534       1.0517903
       6546.0708       1.0350159
       6546.0883       1.0188042
       6546.1057       1.0032554
       6546.1231      0.98845042
       6546.1405      0.97447988
       6546.1579      0.96145706
       6546.1753      0.94951549
       6546.1927      0.93879461
       6546.2101      0.92942107
       6546.2275      0.92149279
       6546.2449      0.91506900
       6546.2624      0.91016627
       6546.2798      0.90675858
       6546.2972      0.90478074
       6546.3146      0.90413643
       6546.3320      0.90471295
       6546.3494      0.90640211
       6546.3668      0.90912143
       6546.3842      0.91282575
       6546.4016      0.91750435
       6546.4191      0.92314325
       6546.4365      0.92969406
       6546.4539      0.93704580
       6546.4713      0.94501504
       6546.4887      0.95336356
       6546.5061      0.96183272
       6546.5235      0.97017814
       6546.5409      0.97819093
       6546.5583      0.98570074
       6546.5757      0.99256663
       6546.5932      0.99866767
       6546.6106       1.0039043
       6546.6280       1.0082143
       6546.6454       1.0115970
       6546.6628       1.0141336
       6546.6802       1.0159889
       6546.6976       1.0173888
       6546.7150       1.0185786
       6546.7324       1.0197738
       6546.7498       1.0211211
       6546.7673       1.0226781
       6546.7847       1.0244155
       6546.8021       1.0262346
       6546.8195       1.0279949
       6546.8369       1.0295447
       6546.8543       1.0307516
       6546.8717       1.0315314
       6546.8891       1.0318718
       6546.9065       1.0318441
       6546.9239       1.0315945
       6546.9414       1.0313104
       6546.9588       1.0311662
       6546.9762       1.0312642
       6546.9936       1.0315951
       6547.0110       1.0320363
       6547.0284       1.0323931
       6547.0458       1.0324659
       6547.0632       1.0321186
       6547.0806       1.0313241
       6547.0980       1.0301544
       6547.1155       1.0287414
       6547.1329       1.0272254
       6547.1503       1.0257163
       6547.1677       1.0242862
       6547.1851       1.0229913
       6547.2025       1.0219019
       6547.2199       1.0211185
       6547.2373       1.0207586
       6547.2547       1.0209218
       6547.2722       1.0216497
       6547.2896       1.0229035
       6547.3070       1.0245679
       6547.3244       1.0264758
       6547.3418       1.0284435
       6547.3592       1.0303041
       6547.3766       1.0319350
       6547.3940       1.0332749
       6547.4114       1.0343312
       6547.4288       1.0351715
       6547.4463       1.0358998
       6547.4637       1.0366216
       6547.4811       1.0374086
       6547.4985       1.0382747
       6547.5159       1.0391709
       6547.5333       1.0400002
       6547.5507       1.0406462
       6547.5681       1.0410071
       6547.5855       1.0410268
       6547.6029       1.0407163
       6547.6204       1.0401618
       6547.6378       1.0395148
       6547.6552       1.0389644
       6547.6726       1.0386948
       6547.6900       1.0388390
       6547.7074       1.0394437
       6547.7248       1.0404458
       6547.7422       1.0416910
       6547.7596       1.0429697
       6547.7770       1.0440648
       6547.7945       1.0448017
       6547.8119       1.0450865
       6547.8293       1.0449273
       6547.8467       1.0444288
       6547.8641       1.0437635
       6547.8815       1.0431194
       6547.8989       1.0426392
       6547.9163       1.0423658
       6547.9337       1.0422134
       6547.9511       1.0419763
       6547.9686       1.0413770
       6547.9860       1.0401396
       6548.0034       1.0380672
       6548.0208       1.0351011
       6548.0382       1.0313459
       6548.0556       1.0270608
       6548.0730       1.0226212
       6548.0904       1.0184621
       6548.1078       1.0150124
       6548.1253       1.0126261
       6548.1427       1.0115213
       6548.1601       1.0117401
       6548.1775       1.0131416
       6548.1949       1.0154369
       6548.2123       1.0182590
       6548.2297       1.0212482
       6548.2471       1.0241251
       6548.2645       1.0267272
       6548.2819       1.0290018
       6548.2994       1.0309644
       6548.3168       1.0326472
       6548.3342       1.0340612
       6548.3516       1.0351841
       6548.3690       1.0359730
       6548.3864       1.0363921
       6548.4038       1.0364306
       6548.4212       1.0361190
       6548.4386       1.0355337
       6548.4560       1.0347951
       6548.4735       1.0340571
       6548.4909       1.0334880
       6548.5083       1.0332430
       6548.5257       1.0334332
       6548.5431       1.0341010
       6548.5605       1.0352078
       6548.5779       1.0366407
       6548.5953       1.0382356
       6548.6127       1.0398116
       6548.6301       1.0412109
       6548.6476       1.0423352
       6548.6650       1.0431703
       6548.6824       1.0437923
       6548.6998       1.0443470
       6548.7172       1.0450089
       6548.7346       1.0459267
       6548.7520       1.0471769
       6548.7694       1.0487404
       6548.7868       1.0505121
       6548.8042       1.0523367
       6548.8217       1.0540550
       6548.8391       1.0555397
       6548.8565       1.0567083
       6548.8739       1.0575122
       6548.8913       1.0579163
       6548.9087       1.0578857
       6548.9261       1.0573912
       6548.9435       1.0564331
       6548.9609       1.0550688
       6548.9784       1.0534264
       6548.9958       1.0516918
       6549.0132       1.0500713
       6549.0306       1.0487345
       6549.0480       1.0477738
       6549.0654       1.0471904
       6549.0828       1.0469100
       6549.1002       1.0468191
       6549.1176       1.0468015
       6549.1350       1.0467615
       6549.1525       1.0466275
       6549.1699       1.0463451
       6549.1873       1.0458724
       6549.2047       1.0451858
       6549.2221       1.0442940
       6549.2395       1.0432521
       6549.2569       1.0421612
       6549.2743       1.0411504
       6549.2917       1.0403459
       6549.3091       1.0398398
       6549.3266       1.0396724
       6549.3440       1.0398323
       6549.3614       1.0402709
       6549.3788       1.0409208
       6549.3962       1.0417099
       6549.4136       1.0425674
       6549.4310       1.0434263
       6549.4484       1.0442248
       6549.4658       1.0449096
       6549.4832       1.0454387
       6549.5007       1.0457826
       6549.5181       1.0459238
       6549.5355       1.0458590
       6549.5529       1.0456058
       6549.5703       1.0452092
       6549.5877       1.0447424
       6549.6051       1.0442950
       6549.6225       1.0439509
       6549.6399       1.0437645
       6549.6573       1.0437468
       6549.6748       1.0438666
       6549.6922       1.0440703
       6549.7096       1.0443112
       6549.7270       1.0445719
       6549.7444       1.0448739
       6549.7618       1.0452678
       6549.7792       1.0458071
       6549.7966       1.0465153
       6549.8140       1.0473605
       6549.8315       1.0482474
       6549.8489       1.0490327
       6549.8663       1.0495577
       6549.8837       1.0496901
       6549.9011       1.0493594
       6549.9185       1.0485771
       6549.9359       1.0474362
       6549.9533       1.0460893
       6549.9707       1.0447155
       6549.9881       1.0434850
       6550.0056       1.0425321
       6550.0230       1.0419412
       6550.0404       1.0417426
       6550.0578       1.0419137
       6550.0752       1.0423831
       6550.0926       1.0430385
       6550.1100       1.0437428
       6550.1274       1.0443593
       6550.1448       1.0447790
       6550.1622       1.0449422
       6550.1797       1.0448451
       6550.1971       1.0445315
       6550.2145       1.0440754
       6550.2319       1.0435610
       6550.2493       1.0430667
       6550.2667       1.0426528
       6550.2841       1.0423551
       6550.3015       1.0421841
       6550.3189       1.0421345
       6550.3363       1.0422000
       6550.3538       1.0423960
       6550.3712       1.0427718
       6550.3886       1.0434080
       6550.4060       1.0443911
       6550.4234       1.0457737
       6550.4408       1.0475330
       6550.4582       1.0495463
       6550.4756       1.0515998
       6550.4930       1.0534341
       6550.5104       1.0548116
       6550.5279       1.0555834
       6550.5453       1.0557280
       6550.5627       1.0553487
       6550.5801       1.0546336
       6550.5975       1.0537977
       6550.6149       1.0530313
       6550.6323       1.0524698
       6550.6497       1.0521868
       6550.6671       1.0522011
       6550.6846       1.0524862
       6550.7020       1.0529759
       6550.7194       1.0535672
       6550.7368       1.0541302
       6550.7542       1.0545266
       6550.7716       1.0546386
       6550.7890       1.0543968
       6550.8064       1.0538003
       6550.8238       1.0529187
       6550.8412       1.0518794
       6550.8587       1.0508437
       6550.8761       1.0499789
       6550.8935       1.0494300
       6550.9109       1.0492954
       6550.9283       1.0496102
       6550.9457       1.0503430
       6550.9631       1.0514102
       6550.9805       1.0527017
       6550.9979       1.0541173
       6551.0153       1.0555881
       6551.0328       1.0570762
       6551.0502       1.0585548
       6551.0676       1.0599837
       6551.0850       1.0612959
       6551.1024       1.0624067
       6551.1198       1.0632423
       6551.1372       1.0637712
       6551.1546       1.0640223
       6551.1720       1.0640762
       6551.1894       1.0640348
       6551.2069       1.0639824
       6551.2243       1.0639555
       6551.2417       1.0639332
       6551.2591       1.0638484
       6551.2765       1.0636127
       6551.2939       1.0631438
       6551.3113       1.0623881
       6551.3287       1.0613346
       6551.3461       1.0600210
       6551.3635       1.0585306
       6551.3810       1.0569783
       6551.3984       1.0554855
       6551.4158       1.0541503
       6551.4332       1.0530234
       6551.4506       1.0521033
       6551.4680       1.0513545
       6551.4854       1.0507408
       6551.5028       1.0502566
       6551.5202       1.0499401
       6551.5377       1.0498615
       6551.5551       1.0500964
       6551.5725       1.0506969
       6551.5899       1.0516757
       6551.6073       1.0530056
       6551.6247       1.0546286
       6551.6421       1.0564616
       6551.6595       1.0584094
       6551.6769       1.0603686
       6551.6943       1.0622372
       6551.7118       1.0639258
       6551.7292       1.0653672
       6551.7466       1.0665165
       6551.7640       1.0673433
       6551.7814       1.0678229
       6551.7988       1.0679351
       6551.8162       1.0676775
       6551.8336       1.0670860
       6551.8510       1.0662497
       6551.8684       1.0653064
       6551.8859       1.0644118
       6551.9033       1.0636906
       6551.9207       1.0631860
       6551.9381       1.0628280
       6551.9555       1.0624323
       6551.9729       1.0617337
       6551.9903       1.0604445
       6552.0077       1.0583260
       6552.0251       1.0552576
       6552.0425       1.0512913
       6552.0600       1.0466768
       6552.0774       1.0418449
       6552.0948       1.0373464
       6552.1122       1.0337514
       6552.1296       1.0315372
       6552.1470       1.0309913
       6552.1644       1.0321616
       6552.1818       1.0348623
       6552.1992       1.0387308
       6552.2167       1.0433120
       6552.2341       1.0481444
       6552.2515       1.0528254
       6552.2689       1.0570410
       6552.2863       1.0605788
       6552.3037       1.0633152
       6552.3211       1.0652012
       6552.3385       1.0662615
       6552.3559       1.0666002
       6552.3733       1.0664040
       6552.3908       1.0659273
       6552.4082       1.0654551
       6552.4256       1.0652481
       6552.4430       1.0654879
       6552.4604       1.0662408
       6552.4778       1.0674534
       6552.4952       1.0689806
       6552.5126       1.0706360
       6552.5300       1.0722472
       6552.5474       1.0737026
       6552.5649       1.0749747
       6552.5823       1.0761155
       6552.5997       1.0772242
       6552.6171       1.0783989
       6552.6345       1.0796905
       6552.6519       1.0810791
       6552.6693       1.0824849
       6552.6867       1.0838084
       6552.7041       1.0849828
       6552.7215       1.0860110
       6552.7390       1.0869695
       6552.7564       1.0879744
       6552.7738       1.0891249
       6552.7912       1.0904486
       6552.8086       1.0918750
       6552.8260       1.0932503
       6552.8434       1.0943889
       6552.8608       1.0951386
       6552.8782       1.0954313
       6552.8956       1.0952972
       6552.9131       1.0948386
       6552.9305       1.0941787
       6552.9479       1.0934047
       6552.9653       1.0925346
       6552.9827       1.0915192
       6553.0001       1.0902743
       6553.0175       1.0887296
       6553.0349       1.0868729
       6553.0523       1.0847720
       6553.0698       1.0825665
       6553.0872       1.0804330
       6553.1046       1.0785372
       6553.1220       1.0769891
       6553.1394       1.0758164
       6553.1568       1.0749629
       6553.1742       1.0743136
       6553.1916       1.0737365
       6553.2090       1.0731304
       6553.2264       1.0724597
       6553.2439       1.0717667
       6553.2613       1.0711539
       6553.2787       1.0707466
       6553.2961       1.0706477
       6553.3135       1.0709035
       6553.3309       1.0714897
       6553.3483       1.0723214
       6553.3657       1.0732783
       6553.3831       1.0742364
       6553.4005       1.0750964
       6553.4180       1.0758028
       6553.4354       1.0763549
       6553.4528       1.0768067
       6553.4702       1.0772566
       6553.4876       1.0778257
       6553.5050       1.0786245
       6553.5224       1.0797159
       6553.5398       1.0810863
       6553.5572       1.0826351
       6553.5746       1.0841931
       6553.5921       1.0855692
       6553.6095       1.0866131
       6553.6269       1.0872652
       6553.6443       1.0875803
       6553.6617       1.0877098
       6553.6791       1.0878513
       6553.6965       1.0881821
       6553.7139       1.0888057
       6553.7313       1.0897279
       6553.7487       1.0908704
       6553.7662       1.0921069
       6553.7836       1.0933043
       6553.8010       1.0943536
       6553.8184       1.0951848
       6553.8358       1.0957705
       6553.8532       1.0961258
       6553.8706       1.0963041
       6553.8880       1.0963859
       6553.9054       1.0964575
       6553.9229       1.0965801
       6553.9403       1.0967648
       6553.9577       1.0969640
       6553.9751       1.0970889
       6553.9925       1.0970454
       6554.0099       1.0967718
       6554.0273       1.0962617
       6554.0447       1.0955599
       6554.0621       1.0947355
       6554.0795       1.0938482
       6554.0970       1.0929231
       6554.1144       1.0919465
       6554.1318       1.0908838
       6554.1492       1.0897079
       6554.1666       1.0884254
       6554.1840       1.0870915
       6554.2014       1.0858084
       6554.2188       1.0847138
       6554.2362       1.0839602
       6554.2536       1.0836859
       6554.2711       1.0839885
       6554.2885       1.0848937
       6554.3059       1.0863306
       6554.3233       1.0881237
       6554.3407       1.0900113
       6554.3581       1.0916918
       6554.3755       1.0928924
       6554.3929       1.0934383
       6554.4103       1.0933019
       6554.4277       1.0926126
       6554.4452       1.0916212
       6554.4626       1.0906290
       6554.4800       1.0899063
       6554.4974       1.0896249
       6554.5148       1.0898272
       6554.5322       1.0904373
       6554.5496       1.0913091
       6554.5670       1.0922917
       6554.5844       1.0932902
       6554.6018       1.0943024
       6554.6193       1.0954173
       6554.6367       1.0967793
       6554.6541       1.0985293
       6554.6715       1.1007471
       6554.6889       1.1034151
       6554.7063       1.1064192
       6554.7237       1.1095870
       6554.7411       1.1127499
       6554.7585       1.1158080
       6554.7760       1.1187716
       6554.7934       1.1217628
       6554.8108       1.1249720
       6554.8282       1.1285839
       6554.8456       1.1326980
       6554.8630       1.1372734
       6554.8804       1.1421164
       6554.8978       1.1469101
       6554.9152       1.1512954
       6554.9326       1.1549521
       6554.9501       1.1576715
       6554.9675       1.1593948
       6554.9849       1.1602116
       6555.0023       1.1603187
       6555.0197       1.1599550
       6555.0371       1.1593329
       6555.0545       1.1585834
       6555.0719       1.1577267
       6555.0893       1.1566713
       6555.1067       1.1552389
       6555.1242       1.1532101
       6555.1416       1.1503837
       6555.1590       1.1466356
       6555.1764       1.1419605
       6555.1938       1.1364806
       6555.2112       1.1304145
       6555.2286       1.1240167
       6555.2460       1.1175137
       6555.2634       1.1110635
       6555.2808       1.1047545
       6555.2983       1.0986383
       6555.3157       1.0927735
       6555.3331       1.0872562
       6555.3505       1.0822243
       6555.3679       1.0778370
       6555.3853       1.0742452
       6555.4027       1.0715646
       6555.4201       1.0698581
       6555.4375       1.0691224
       6555.4549       1.0692798
       6555.4724       1.0701727
       6555.4898       1.0715726
