# Angstrom [air],  flux [abs.cor.cont.sub+1]
       6544.9914       1.0250329
       6545.0088       1.0253848
       6545.0262       1.0256014
       6545.0436       1.0256872
       6545.0611       1.0256412
       6545.0785       1.0254572
       6545.0959       1.0251310
       6545.1133       1.0246755
       6545.1307       1.0241292
       6545.1481       1.0235550
       6545.1655       1.0230262
       6545.1829       1.0226030
       6545.2003       1.0223115
       6545.2177       1.0221396
       6545.2352       1.0220537
       6545.2526       1.0220296
       6545.2700       1.0220783
       6545.2874       1.0222524
       6545.3048       1.0226278
       6545.3222       1.0232753
       6545.3396       1.0242397
       6545.3570       1.0255407
       6545.3744       1.0271950
       6545.3918       1.0292468
       6545.4093       1.0317900
       6545.4267       1.0349700
       6545.4441       1.0389626
       6545.4615       1.0439385
       6545.4789       1.0500216
       6545.4963       1.0572545
       6545.5137       1.0655800
       6545.5311       1.0748443
       6545.5485       1.0848218
       6545.5660       1.0952557
       6545.5834       1.1058995
       6545.6008       1.1165488
       6545.6182       1.1270521
       6545.6356       1.1373039
       6545.6530       1.1472238
       6545.6704       1.1567346
       6545.6878       1.1657437
       6545.7052       1.1741333
       6545.7226       1.1817577
       6545.7401       1.1884475
       6545.7575       1.1940177
       6545.7749       1.1982792
       6545.7923       1.2010532
       6545.8097       1.2021847
       6545.8271       1.2015544
       6545.8445       1.1990877
       6545.8619       1.1947562
       6545.8793       1.1885739
       6545.8967       1.1805906
       6545.9142       1.1708889
       6545.9316       1.1595890
       6545.9490       1.1468568
       6545.9664       1.1329084
       6545.9838       1.1180024
       6546.0012       1.1024169
       6546.0186       1.0864198
       6546.0360       1.0702424
       6546.0534       1.0540651
       6546.0708       1.0380179
       6546.0883       1.0221923
       6546.1057       1.0066598
       6546.1231      0.99149508
       6546.1405      0.97680031
       6546.1579      0.96272403
       6546.1753      0.94946667
       6546.1927      0.93726560
       6546.2101      0.92635984
       6546.2275      0.91694414
       6546.2449      0.90912956
       6546.2624      0.90292720
       6546.2798      0.89826440
       6546.2972      0.89502872
       6546.3146      0.89312277
       6546.3320      0.89250728
       6546.3494      0.89321507
       6546.3668      0.89533269
       6546.3842      0.89896108
       6546.4016      0.90418116
       6546.4191      0.91100471
       6546.4365      0.91936803
       6546.4539      0.92912247
       6546.4713      0.94001476
       6546.4887      0.95167149
       6546.5061      0.96360104
       6546.5235      0.97523123
       6546.5409      0.98598626
       6546.5583      0.99538440
       6546.5757       1.0031221
       6546.5932       1.0091125
       6546.6106       1.0134677
       6546.6280       1.0164375
       6546.6454       1.0183350
       6546.6628       1.0194775
       6546.6802       1.0201537
       6546.6976       1.0206131
       6546.7150       1.0210628
       6546.7324       1.0216602
       6546.7498       1.0224997
       6546.7673       1.0236001
       6546.7847       1.0249024
       6546.8021       1.0262861
       6546.8195       1.0276022
       6546.8369       1.0287162
       6546.8543       1.0295467
       6546.8717       1.0300875
       6546.8891       1.0304047
       6546.9065       1.0306111
       6546.9239       1.0308294
       6546.9414       1.0311579
       6546.9588       1.0316505
       6546.9762       1.0323122
       6546.9936       1.0331035
       6547.0110       1.0339487
       6547.0284       1.0347429
       6547.0458       1.0353620
       6547.0632       1.0356772
       6547.0806       1.0355825
       6547.0980       1.0350134
       6547.1155       1.0339627
       6547.1329       1.0324831
       6547.1503       1.0306796
       6547.1677       1.0286975
       6547.1851       1.0267089
       6547.2025       1.0248990
       6547.2199       1.0234471
       6547.2373       1.0225035
       6547.2547       1.0221640
       6547.2722       1.0224548
       6547.2896       1.0233319
       6547.3070       1.0246980
       6547.3244       1.0264266
       6547.3418       1.0283838
       6547.3592       1.0304398
       6547.3766       1.0324720
       6547.3940       1.0343662
       6547.4114       1.0360218
       6547.4288       1.0373632
       6547.4463       1.0383527
       6547.4637       1.0389990
       6547.4811       1.0393559
       6547.4985       1.0395074
       6547.5159       1.0395464
       6547.5333       1.0395493
       6547.5507       1.0395601
       6547.5681       1.0395849
       6547.5855       1.0396003
       6547.6029       1.0395691
       6547.6204       1.0394566
       6547.6378       1.0392412
       6547.6552       1.0389191
       6547.6726       1.0385050
       6547.6900       1.0380329
       6547.7074       1.0375568
       6547.7248       1.0371474
       6547.7422       1.0368799
       6547.7596       1.0368162
       6547.7770       1.0369868
       6547.7945       1.0373804
       6547.8119       1.0379482
       6547.8293       1.0386202
       6547.8467       1.0393250
       6547.8641       1.0400034
       6547.8815       1.0406105
       6547.8989       1.0411076
       6547.9163       1.0414500
       6547.9337       1.0415799
       6547.9511       1.0414281
       6547.9686       1.0409275
       6547.9860       1.0400345
       6548.0034       1.0387522
       6548.0208       1.0371475
       6548.0382       1.0353541
       6548.0556       1.0335567
       6548.0730       1.0319591
       6548.0904       1.0307427
       6548.1078       1.0300264
       6548.1253       1.0298398
       6548.1427       1.0301171
       6548.1601       1.0307131
       6548.1775       1.0314387
       6548.1949       1.0321070
       6548.2123       1.0325784
       6548.2297       1.0327928
       6548.2471       1.0327774
       6548.2645       1.0326265
       6548.2819       1.0324598
       6548.2994       1.0323751
       6548.3168       1.0324151
       6548.3342       1.0325623
       6548.3516       1.0327639
       6548.3690       1.0329715
       6548.3864       1.0331758
       6548.4038       1.0334164
       6548.4212       1.0337660
       6548.4386       1.0342982
       6548.4560       1.0350577
       6548.4735       1.0360426
       6548.4909       1.0372052
       6548.5083       1.0384662
       6548.5257       1.0397361
       6548.5431       1.0409355
       6548.5605       1.0420121
       6548.5779       1.0429463
       6548.5953       1.0437464
       6548.6127       1.0444353
       6548.6301       1.0450352
       6548.6476       1.0455592
       6548.6650       1.0460164
       6548.6824       1.0464258
       6548.6998       1.0468300
       6548.7172       1.0472947
       6548.7346       1.0478888
       6548.7520       1.0486510
       6548.7694       1.0495590
       6548.7868       1.0505200
       6548.8042       1.0513885
       6548.8217       1.0520059
       6548.8391       1.0522432
       6548.8565       1.0520285
       6548.8739       1.0513537
       6548.8913       1.0502643
       6548.9087       1.0488448
       6548.9261       1.0472085
       6548.9435       1.0454908
       6548.9609       1.0438405
       6548.9784       1.0424032
       6548.9958       1.0412967
       6549.0132       1.0405886
       6549.0306       1.0402725
       6549.0480       1.0402807
       6549.0654       1.0405039
       6549.0828       1.0408224
       6549.1002       1.0411364
       6549.1176       1.0413867
       6549.1350       1.0415615
       6549.1525       1.0416887
       6549.1699       1.0418169
       6549.1873       1.0419867
       6549.2047       1.0422000
       6549.2221       1.0423955
       6549.2395       1.0424401
       6549.2569       1.0421452
       6549.2743       1.0413069
       6549.2917       1.0397648
       6549.3091       1.0374658
       6549.3266       1.0345151
       6549.3440       1.0311974
       6549.3614       1.0279498
       6549.3788       1.0252824
       6549.3962       1.0236601
       6549.4136       1.0233795
       6549.4310       1.0244850
       6549.4484       1.0267572
       6549.4658       1.0297786
       6549.4832       1.0330498
       6549.5007       1.0361113
       6549.5181       1.0386343
       6549.5355       1.0404596
       6549.5529       1.0415924
       6549.5703       1.0421661
       6549.5877       1.0423923
       6549.6051       1.0425058
       6549.6225       1.0427125
       6549.6399       1.0431469
       6549.6573       1.0438488
       6549.6748       1.0447624
       6549.6922       1.0457653
       6549.7096       1.0467169
       6549.7270       1.0475047
       6549.7444       1.0480781
       6549.7618       1.0484543
       6549.7792       1.0486975
       6549.7966       1.0488795
       6549.8140       1.0490404
       6549.8315       1.0491669
       6549.8489       1.0491998
       6549.8663       1.0490669
       6549.8837       1.0487282
       6549.9011       1.0482105
       6549.9185       1.0476142
       6549.9359       1.0470862
       6549.9533       1.0467679
       6549.9707       1.0467379
       6549.9881       1.0469752
       6550.0056       1.0473584
       6550.0230       1.0477062
       6550.0404       1.0478446
       6550.0578       1.0476753
       6550.0752       1.0472184
       6550.0926       1.0466080
       6550.1100       1.0460437
       6550.1274       1.0457154
       6550.1448       1.0457318
       6550.1622       1.0460806
       6550.1797       1.0466324
       6550.1971       1.0471850
       6550.2145       1.0475286
       6550.2319       1.0475114
       6550.2493       1.0470853
       6550.2667       1.0463216
       6550.2841       1.0453919
       6550.3015       1.0445234
       6550.3189       1.0439420
       6550.3363       1.0438096
       6550.3538       1.0441938
       6550.3712       1.0450594
       6550.3886       1.0462848
       6550.4060       1.0476935
       6550.4234       1.0490907
       6550.4408       1.0502997
       6550.4582       1.0511922
       6550.4756       1.0517095
       6550.4930       1.0518704
       6550.5104       1.0517638
       6550.5279       1.0515257
       6550.5453       1.0513076
       6550.5627       1.0512427
       6550.5801       1.0514168
       6550.5975       1.0518512
       6550.6149       1.0525003
       6550.6323       1.0532656
       6550.6497       1.0540252
       6550.6671       1.0546701
       6550.6846       1.0551392
       6550.7020       1.0554396
       6550.7194       1.0556436
       6550.7368       1.0558623
       6550.7542       1.0562024
       6550.7716       1.0567221
       6550.7890       1.0574007
       6550.8064       1.0581365
       6550.8238       1.0587744
       6550.8412       1.0591589
       6550.8587       1.0591941
       6550.8761       1.0588860
       6550.8935       1.0583485
       6550.9109       1.0577651
       6550.9283       1.0573211
       6550.9457       1.0571363
       6550.9631       1.0572298
       6550.9805       1.0575283
       6550.9979       1.0579170
       6551.0153       1.0582978
       6551.0328       1.0586237
       6551.0502       1.0589002
       6551.0676       1.0591607
       6551.0850       1.0594355
       6551.1024       1.0597344
       6551.1198       1.0600467
       6551.1372       1.0603555
       6551.1546       1.0606519
       6551.1720       1.0609424
       6551.1894       1.0612445
       6551.2069       1.0615726
       6551.2243       1.0619197
       6551.2417       1.0622401
       6551.2591       1.0624432
       6551.2765       1.0624070
       6551.2939       1.0620112
       6551.3113       1.0611820
       6551.3287       1.0599297
       6551.3461       1.0583589
       6551.3635       1.0566440
       6551.3810       1.0549805
       6551.3984       1.0535324
       6551.4158       1.0524022
       6551.4332       1.0516308
       6551.4506       1.0512224
       6551.4680       1.0511740
       6551.4854       1.0514938
       6551.5028       1.0521985
       6551.5202       1.0532965
       6551.5377       1.0547686
       6551.5551       1.0565544
       6551.5725       1.0585504
       6551.5899       1.0606169
       6551.6073       1.0625921
       6551.6247       1.0643111
       6551.6421       1.0656366
       6551.6595       1.0664795
       6551.6769       1.0668119
       6551.6943       1.0666610
       6551.7118       1.0660871
       6551.7292       1.0651568
       6551.7466       1.0639292
       6551.7640       1.0624658
       6551.7814       1.0608562
       6551.7988       1.0592426
       6551.8162       1.0578231
       6551.8336       1.0568224
       6551.8510       1.0564395
       6551.8684       1.0567910
       6551.8859       1.0578747
       6551.9033       1.0595659
       6551.9207       1.0616447
       6551.9381       1.0638393
       6551.9555       1.0658693
       6551.9729       1.0674783
       6551.9903       1.0684590
       6552.0077       1.0686774
       6552.0251       1.0681005
       6552.0425       1.0668213
       6552.0600       1.0650629
       6552.0774       1.0631479
       6552.0948       1.0614305
       6552.1122       1.0602097
       6552.1296       1.0596542
       6552.1470       1.0597682
       6552.1644       1.0604089
       6552.1818       1.0613463
       6552.1992       1.0623377
       6552.2167       1.0631900
       6552.2341       1.0637920
       6552.2515       1.0641152
       6552.2689       1.0641926
       6552.2863       1.0640938
       6552.3037       1.0638980
       6552.3211       1.0636801
       6552.3385       1.0635050
       6552.3559       1.0634255
       6552.3733       1.0634811
       6552.3908       1.0636960
       6552.4082       1.0640791
       6552.4256       1.0646266
       6552.4430       1.0653263
       6552.4604       1.0661622
       6552.4778       1.0671162
       6552.4952       1.0681688
       6552.5126       1.0693012
       6552.5300       1.0705005
       6552.5474       1.0717643
       6552.5649       1.0730999
       6552.5823       1.0745140
       6552.5997       1.0759957
       6552.6171       1.0775031
       6552.6345       1.0789633
       6552.6519       1.0802922
       6552.6693       1.0814258
       6552.6867       1.0823492
       6552.7041       1.0831077
       6552.7215       1.0837936
       6552.7390       1.0845131
       6552.7564       1.0853461
       6552.7738       1.0863133
       6552.7912       1.0873634
       6552.8086       1.0883848
       6552.8260       1.0892398
       6552.8434       1.0898109
       6552.8608       1.0900430
       6552.8782       1.0899663
       6552.8956       1.0896885
       6552.9131       1.0893599
       6552.9305       1.0891230
       6552.9479       1.0890622
       6552.9653       1.0891825
       6552.9827       1.0894126
       6553.0001       1.0896324
       6553.0175       1.0897104
       6553.0349       1.0895382
       6553.0523       1.0890537
       6553.0698       1.0882500
       6553.0872       1.0871724
       6553.1046       1.0859089
       6553.1220       1.0845734
       6553.1394       1.0832845
       6553.1568       1.0821400
       6553.1742       1.0811955
       6553.1916       1.0804559
       6553.2090       1.0798834
       6553.2264       1.0794212
       6553.2439       1.0790198
       6553.2613       1.0786561
       6553.2787       1.0783342
       6553.2961       1.0780722
       6553.3135       1.0778820
       6553.3309       1.0777527
       6553.3483       1.0776468
       6553.3657       1.0775075
       6553.3831       1.0772758
       6553.4005       1.0769081
       6553.4180       1.0763912
       6553.4354       1.0757509
       6553.4528       1.0750526
       6553.4702       1.0743936
       6553.4876       1.0738851
       6553.5050       1.0736250
       6553.5224       1.0736696
       6553.5398       1.0740132
       6553.5572       1.0745876
       6553.5746       1.0752828
       6553.5921       1.0759845
       6553.6095       1.0766146
       6553.6269       1.0771535
       6553.6443       1.0776416
       6553.6617       1.0781623
       6553.6791       1.0788148
       6553.6965       1.0796898
       6553.7139       1.0808518
       6553.7313       1.0823320
       6553.7487       1.0841275
       6553.7662       1.0862039
       6553.7836       1.0884987
       6553.8010       1.0909242
       6553.8184       1.0933714
       6553.8358       1.0957146
       6553.8532       1.0978209
       6553.8706       1.0995639
       6553.8880       1.1008404
       6553.9054       1.1015888
       6553.9229       1.1018003
       6553.9403       1.1015220
       6553.9577       1.1008446
       6553.9751       1.0998792
       6553.9925       1.0987299
       6554.0099       1.0974728
       6554.0273       1.0961501
       6554.0447       1.0947800
       6554.0621       1.0933749
       6554.0795       1.0919572
       6554.0970       1.0905636
       6554.1144       1.0892384
       6554.1318       1.0880198
       6554.1492       1.0869289
       6554.1666       1.0859662
       6554.1840       1.0851141
       6554.2014       1.0843437
       6554.2188       1.0836203
       6554.2362       1.0829093
       6554.2536       1.0821857
       6554.2711       1.0814458
       6554.2885       1.0807206
       6554.3059       1.0800833
       6554.3233       1.0796404
       6554.3407       1.0795093
       6554.3581       1.0797869
       6554.3755       1.0805257
       6554.3929       1.0817272
       6554.4103       1.0833534
       6554.4277       1.0853455
       6554.4452       1.0876364
       6554.4626       1.0901492
       6554.4800       1.0927866
       6554.4974       1.0954218
       6554.5148       1.0979051
       6554.5322       1.1000858
       6554.5496       1.1018422
       6554.5670       1.1031049
       6554.5844       1.1038682
       6554.6018       1.1041863
       6554.6193       1.1041633
       6554.6367       1.1039417
       6554.6541       1.1036895
       6554.6715       1.1035840
       6554.6889       1.1037877
       6554.7063       1.1044212
       6554.7237       1.1055410
       6554.7411       1.1071324
       6554.7585       1.1091224
       6554.7760       1.1114084
       6554.7934       1.1138940
       6554.8108       1.1165169
       6554.8282       1.1192614
       6554.8456       1.1221486
       6554.8630       1.1252100
       6554.8804       1.1284553
       6554.8978       1.1318413
       6554.9152       1.1352708
       6554.9326       1.1386077
       6554.9501       1.1417054
       6554.9675       1.1444340
       6554.9849       1.1466953
       6555.0023       1.1484260
       6555.0197       1.1495924
       6555.0371       1.1501833
       6555.0545       1.1502044
       6555.0719       1.1496691
       6555.0893       1.1485870
       6555.1067       1.1469505
       6555.1242       1.1447302
       6555.1416       1.1418825
       6555.1590       1.1383704
       6555.1764       1.1341904
       6555.1938       1.1293933
       6555.2112       1.1240923
       6555.2286       1.1184569
       6555.2460       1.1126970
       6555.2634       1.1070400
       6555.2808       1.1017055
       6555.2983       1.0968762
       6555.3157       1.0926708
       6555.3331       1.0891221
       6555.3505       1.0861726
       6555.3679       1.0836919
       6555.3853       1.0815156
       6555.4027       1.0794921
       6555.4201       1.0775237
       6555.4375       1.0755848
       6555.4549       1.0737148
       6555.4724       1.0719927
       6555.4898       1.0705062
