# Angstrom [air],  flux [abs.cor.cont.sub+1]
       6544.9914       1.0205792
       6545.0088       1.0211651
       6545.0262       1.0219164
       6545.0436       1.0226876
       6545.0611       1.0233412
       6545.0785       1.0237794
       6545.0959       1.0239652
       6545.1133       1.0239304
       6545.1307       1.0237643
       6545.1481       1.0235892
       6545.1655       1.0235323
       6545.1829       1.0236978
       6545.2003       1.0241459
       6545.2177       1.0248865
       6545.2352       1.0258858
       6545.2526       1.0270847
       6545.2700       1.0284207
       6545.2874       1.0298461
       6545.3048       1.0313359
       6545.3222       1.0328873
       6545.3396       1.0345132
       6545.3570       1.0362378
       6545.3744       1.0380986
       6545.3918       1.0401554
       6545.4093       1.0425012
       6545.4267       1.0452661
       6545.4441       1.0486059
       6545.4615       1.0526772
       6545.4789       1.0576036
       6545.4963       1.0634477
       6545.5137       1.0702004
       6545.5311       1.0777893
       6545.5485       1.0861023
       6545.5660       1.0950100
       6545.5834       1.1043794
       6545.6008       1.1140736
       6545.6182       1.1239454
       6545.6356       1.1338334
       6545.6530       1.1435672
       6545.6704       1.1529786
       6545.6878       1.1619130
       6545.7052       1.1702317
       6545.7226       1.1778047
       6545.7401       1.1844967
       6545.7575       1.1901561
       6545.7749       1.1946108
       6545.7923       1.1976805
       6545.8097       1.1991952
       6545.8271       1.1990170
       6545.8445       1.1970615
       6545.8619       1.1933111
       6545.8793       1.1878195
       6545.8967       1.1807038
       6545.9142       1.1721270
       6545.9316       1.1622716
       6545.9490       1.1513095
       6545.9664       1.1393754
       6545.9838       1.1265527
       6546.0012       1.1128793
       6546.0186       1.0983748
       6546.0360       1.0830860
       6546.0534       1.0671329
       6546.0708       1.0507374
       6546.0883       1.0342214
       6546.1057       1.0179687
       6546.1231       1.0023653
       6546.1405      0.98773653
       6546.1579      0.97430696
       6546.1753      0.96219123
       6546.1927      0.95141524
       6546.2101      0.94195161
       6546.2275      0.93375290
       6546.2449      0.92677292
       6546.2624      0.92097683
       6546.2798      0.91634611
       6546.2972      0.91288290
       6546.3146      0.91061207
       6546.3320      0.90957586
       6546.3494      0.90981837
       6546.3668      0.91136361
       6546.3842      0.91419633
       6546.4016      0.91825859
       6546.4191      0.92344001
       6546.4365      0.92959789
       6546.4539      0.93656441
       6546.4713      0.94414011
       6546.4887      0.95208454
       6546.5061      0.96011502
       6546.5235      0.96792644
       6546.5409      0.97523570
       6546.5583      0.98183868
       6546.5757      0.98765633
       6546.5932      0.99274664
       6546.6106      0.99727154
       6546.6280       1.0014280
       6546.6454       1.0053692
       6546.6628       1.0091467
       6546.6802       1.0126975
       6546.6976       1.0158792
       6546.7150       1.0185388
       6546.7324       1.0205844
       6546.7498       1.0220332
       6546.7673       1.0230159
       6546.7847       1.0237388
       6546.8021       1.0244204
       6546.8195       1.0252265
       6546.8369       1.0262280
       6546.8543       1.0273936
       6546.8717       1.0286153
       6546.8891       1.0297561
       6546.9065       1.0306992
       6546.9239       1.0313817
       6546.9414       1.0318062
       6546.9588       1.0320265
       6546.9762       1.0321191
       6546.9936       1.0321494
       6547.0110       1.0321447
       6547.0284       1.0320811
       6547.0458       1.0318872
       6547.0632       1.0314644
       6547.0806       1.0307231
       6547.0980       1.0296143
       6547.1155       1.0281560
       6547.1329       1.0264413
       6547.1503       1.0246255
       6547.1677       1.0228973
       6547.1851       1.0214424
       6547.2025       1.0204147
       6547.2199       1.0199193
       6547.2373       1.0200114
       6547.2547       1.0207011
       6547.2722       1.0219561
       6547.2896       1.0236968
       6547.3070       1.0257890
       6547.3244       1.0280441
       6547.3418       1.0302371
       6547.3592       1.0321443
       6547.3766       1.0335910
       6547.3940       1.0344904
       6547.4114       1.0348592
       6547.4288       1.0348036
       6547.4463       1.0344825
       6547.4637       1.0340636
       6547.4811       1.0336882
       6547.4985       1.0334547
       6547.5159       1.0334206
       6547.5333       1.0336144
       6547.5507       1.0340485
       6547.5681       1.0347242
       6547.5855       1.0356283
       6547.6029       1.0367254
       6547.6204       1.0379524
       6547.6378       1.0392212
       6547.6552       1.0404327
       6547.6726       1.0414975
       6547.6900       1.0423591
       6547.7074       1.0430094
       6547.7248       1.0434961
       6547.7422       1.0439059
       6547.7596       1.0443371
       6547.7770       1.0448668
       6547.7945       1.0455229
       6547.8119       1.0462727
       6547.8293       1.0470319
       6547.8467       1.0476888
       6547.8641       1.0481331
       6547.8815       1.0482743
       6547.8989       1.0480468
       6547.9163       1.0474046
       6547.9337       1.0463180
       6547.9511       1.0447802
       6547.9686       1.0428223
       6547.9860       1.0405267
       6548.0034       1.0380262
       6548.0208       1.0354854
       6548.0382       1.0330712
       6548.0556       1.0309260
       6548.0730       1.0291574
       6548.0904       1.0278424
       6548.1078       1.0270381
       6548.1253       1.0267840
       6548.1427       1.0270908
       6548.1601       1.0279182
       6548.1775       1.0291601
       6548.1949       1.0306483
       6548.2123       1.0321814
       6548.2297       1.0335679
       6548.2471       1.0346676
       6548.2645       1.0354133
       6548.2819       1.0358082
       6548.2994       1.0359053
       6548.3168       1.0357814
       6548.3342       1.0355183
       6548.3516       1.0351926
       6548.3690       1.0348717
       6548.3864       1.0346054
       6548.4038       1.0344162
       6548.4212       1.0342928
       6548.4386       1.0341939
       6548.4560       1.0340682
       6548.4735       1.0338843
       6548.4909       1.0336596
       6548.5083       1.0334748
       6548.5257       1.0334659
       6548.5431       1.0337941
       6548.5605       1.0346015
       6548.5779       1.0359662
       6548.5953       1.0378721
       6548.6127       1.0402034
       6548.6301       1.0427680
       6548.6476       1.0453437
       6548.6650       1.0477307
       6548.6824       1.0497933
       6548.6998       1.0514774
       6548.7172       1.0527986
       6548.7346       1.0538100
       6548.7520       1.0545636
       6548.7694       1.0550814
       6548.7868       1.0553461
       6548.8042       1.0553122
       6548.8217       1.0549327
       6548.8391       1.0541865
       6548.8565       1.0530971
       6548.8739       1.0517336
       6548.8913       1.0501953
       6548.9087       1.0485864
       6548.9261       1.0469928
       6548.9435       1.0454706
       6548.9609       1.0440511
       6548.9784       1.0427603
       6548.9958       1.0416398
       6549.0132       1.0407599
       6549.0306       1.0402061
       6549.0480       1.0400602
       6549.0654       1.0403690
       6549.0828       1.0411224
       6549.1002       1.0422462
       6549.1176       1.0436137
       6549.1350       1.0450697
       6549.1525       1.0464605
       6549.1699       1.0476586
       6549.1873       1.0485750
       6549.2047       1.0491585
       6549.2221       1.0493850
       6549.2395       1.0492462
       6549.2569       1.0487456
       6549.2743       1.0479072
       6549.2917       1.0467902
       6549.3091       1.0455028
       6549.3266       1.0441996
       6549.3440       1.0430582
       6549.3614       1.0422374
       6549.3788       1.0418312
       6549.3962       1.0418354
       6549.4136       1.0421443
       6549.4310       1.0425783
       6549.4484       1.0429351
       6549.4658       1.0430463
       6549.4832       1.0428201
       6549.5007       1.0422611
       6549.5181       1.0414634
       6549.5355       1.0405846
       6549.5529       1.0398083
       6549.5703       1.0393060
       6549.5877       1.0392026
       6549.6051       1.0395521
       6549.6225       1.0403293
       6549.6399       1.0414402
       6549.6573       1.0427503
       6549.6748       1.0441192
       6549.6922       1.0454340
       6549.7096       1.0466237
       6549.7270       1.0476524
       6549.7444       1.0485035
       6549.7618       1.0491640
       6549.7792       1.0496175
       6549.7966       1.0498453
       6549.8140       1.0498303
       6549.8315       1.0495592
       6549.8489       1.0490242
       6549.8663       1.0482305
       6549.8837       1.0472087
       6549.9011       1.0460304
       6549.9185       1.0448122
       6549.9359       1.0436997
       6549.9533       1.0428307
       6549.9707       1.0422889
       6549.9881       1.0420716
       6550.0056       1.0420901
       6550.0230       1.0422066
       6550.0404       1.0422948
       6550.0578       1.0422981
       6550.0752       1.0422582
       6550.0926       1.0423005
       6550.1100       1.0425810
       6550.1274       1.0432156
       6550.1448       1.0442217
       6550.1622       1.0454958
       6550.1797       1.0468370
       6550.1971       1.0480039
       6550.2145       1.0487841
       6550.2319       1.0490498
       6550.2493       1.0487834
       6550.2667       1.0480691
       6550.2841       1.0470580
       6550.3015       1.0459210
       6550.3189       1.0448069
       6550.3363       1.0438139
       6550.3538       1.0429882
       6550.3712       1.0423413
       6550.3886       1.0418745
       6550.4060       1.0415949
       6550.4234       1.0415139
       6550.4408       1.0416323
       6550.4582       1.0419243
       6550.4756       1.0423349
       6550.4930       1.0427973
       6550.5104       1.0432643
       6550.5279       1.0437351
       6550.5453       1.0442633
       6550.5627       1.0449388
       6550.5801       1.0458519
       6550.5975       1.0470545
       6550.6149       1.0485374
       6550.6323       1.0502288
       6550.6497       1.0520137
       6550.6671       1.0537616
       6550.6846       1.0553514
       6550.7020       1.0566866
       6550.7194       1.0576993
       6550.7368       1.0583474
       6550.7542       1.0586091
       6550.7716       1.0584805
       6550.7890       1.0579779
       6550.8064       1.0571438
       6550.8238       1.0560570
       6550.8412       1.0548373
       6550.8587       1.0536415
       6550.8761       1.0526453
       6550.8935       1.0520110
       6550.9109       1.0518498
       6550.9283       1.0521896
       6550.9457       1.0529597
       6550.9631       1.0540011
       6550.9805       1.0550985
       6550.9979       1.0560352
       6551.0153       1.0566417
       6551.0328       1.0568284
       6551.0502       1.0565963
       6551.0676       1.0560249
       6551.0850       1.0552474
       6551.1024       1.0544220
       6551.1198       1.0537080
       6551.1372       1.0532482
       6551.1546       1.0531546
       6551.1720       1.0534963
       6551.1894       1.0542879
       6551.2069       1.0554856
       6551.2243       1.0569913
       6551.2417       1.0586681
       6551.2591       1.0603574
       6551.2765       1.0618937
       6551.2939       1.0631149
       6551.3113       1.0638737
       6551.3287       1.0640589
       6551.3461       1.0636268
       6551.3635       1.0626311
       6551.3810       1.0612313
       6551.3984       1.0596632
       6551.4158       1.0581739
       6551.4332       1.0569425
       6551.4506       1.0560237
       6551.4680       1.0553417
       6551.4854       1.0547440
       6551.5028       1.0540903
       6551.5202       1.0533358
       6551.5377       1.0525653
       6551.5551       1.0519634
       6551.5725       1.0517333
       6551.5899       1.0520081
       6551.6073       1.0527939
       6551.6247       1.0539692
       6551.6421       1.0553282
       6551.6595       1.0566583
       6551.6769       1.0577931
       6551.6943       1.0586408
       6551.7118       1.0591837
       6551.7292       1.0594591
       6551.7466       1.0595328
       6551.7640       1.0594755
       6551.7814       1.0593446
       6551.7988       1.0591778
       6551.8162       1.0589986
       6551.8336       1.0588298
       6551.8510       1.0587051
       6551.8684       1.0586705
       6551.8859       1.0587714
       6551.9033       1.0590364
       6551.9207       1.0594688
       6551.9381       1.0600541
       6551.9555       1.0607782
       6551.9729       1.0616409
       6551.9903       1.0626521
       6552.0077       1.0638099
       6552.0251       1.0650734
       6552.0425       1.0663470
       6552.0600       1.0674876
       6552.0774       1.0683336
       6552.0948       1.0687448
       6552.1122       1.0686405
       6552.1296       1.0680261
       6552.1470       1.0670018
       6552.1644       1.0657498
       6552.1818       1.0644998
       6552.1992       1.0634793
       6552.2167       1.0628610
       6552.2341       1.0627249
       6552.2515       1.0630502
       6552.2689       1.0637398
       6552.2863       1.0646611
       6552.3037       1.0656969
       6552.3211       1.0667703
       6552.3385       1.0678390
       6552.3559       1.0688680
       6552.3733       1.0697992
       6552.3908       1.0705387
       6552.4082       1.0709719
       6552.4256       1.0710041
       6552.4430       1.0706039
       6552.4604       1.0698294
       6552.4778       1.0688226
       6552.4952       1.0677712
       6552.5126       1.0668548
       6552.5300       1.0661962
       6552.5474       1.0658366
       6552.5649       1.0657429
       6552.5823       1.0658411
       6552.5997       1.0660603
       6552.6171       1.0663689
       6552.6345       1.0667888
       6552.6519       1.0673850
       6552.6693       1.0682397
       6552.6867       1.0694218
       6552.7041       1.0709632
       6552.7215       1.0728485
       6552.7390       1.0750166
       6552.7564       1.0773730
       6552.7738       1.0798080
       6552.7912       1.0822149
       6552.8086       1.0845026
       6552.8260       1.0865997
       6552.8434       1.0884504
       6552.8608       1.0900102
       6552.8782       1.0912465
       6552.8956       1.0921456
       6552.9131       1.0927223
       6552.9305       1.0930228
       6552.9479       1.0931139
       6552.9653       1.0930579
       6552.9827       1.0928863
       6553.0001       1.0925833
       6553.0175       1.0920895
       6553.0349       1.0913278
       6553.0523       1.0902429
       6553.0698       1.0888355
       6553.0872       1.0871724
       6553.1046       1.0853641
       6553.1220       1.0835197
       6553.1394       1.0817021
       6553.1568       1.0799106
       6553.1742       1.0781043
       6553.1916       1.0762535
       6553.2090       1.0743938
       6553.2264       1.0726508
       6553.2439       1.0712214
       6553.2613       1.0703176
       6553.2787       1.0700987
       6553.2961       1.0706185
       6553.3135       1.0718055
       6553.3309       1.0734803
       6553.3483       1.0753975
       6553.3657       1.0772961
       6553.3831       1.0789434
       6553.4005       1.0801653
       6553.4180       1.0808610
       6553.4354       1.0810088
       6553.4528       1.0806636
       6553.4702       1.0799492
       6553.4876       1.0790419
       6553.5050       1.0781434
       6553.5224       1.0774488
       6553.5398       1.0771147
       6553.5572       1.0772381
       6553.5746       1.0778505
       6553.5921       1.0789161
       6553.6095       1.0803525
       6553.6269       1.0820453
       6553.6443       1.0838636
       6553.6617       1.0856766
       6553.6791       1.0873715
       6553.6965       1.0888726
       6553.7139       1.0901558
       6553.7313       1.0912521
       6553.7487       1.0922348
       6553.7662       1.0931921
       6553.7836       1.0941939
       6553.8010       1.0952643
       6553.8184       1.0963705
       6553.8358       1.0974334
       6553.8532       1.0983565
       6553.8706       1.0990622
       6553.8880       1.0995217
       6553.9054       1.0997648
       6553.9229       1.0998665
       6553.9403       1.0999118
       6553.9577       1.0999561
       6553.9751       1.0999963
       6553.9925       1.0999644
       6554.0099       1.0997465
       6554.0273       1.0992192
       6554.0447       1.0982880
       6554.0621       1.0969172
       6554.0795       1.0951408
       6554.0970       1.0930546
       6554.1144       1.0907943
       6554.1318       1.0885072
       6554.1492       1.0863253
       6554.1666       1.0843472
       6554.1840       1.0826308
       6554.2014       1.0811984
       6554.2188       1.0800501
       6554.2362       1.0791769
       6554.2536       1.0785708
       6554.2711       1.0782316
       6554.2885       1.0781642
       6554.3059       1.0783727
       6554.3233       1.0788538
       6554.3407       1.0795886
       6554.3581       1.0805371
       6554.3755       1.0816346
       6554.3929       1.0827960
       6554.4103       1.0839264
       6554.4277       1.0849359
       6554.4452       1.0857536
       6554.4626       1.0863357
       6554.4800       1.0866695
       6554.4974       1.0867740
       6554.5148       1.0867015
       6554.5322       1.0865387
       6554.5496       1.0864024
       6554.5670       1.0864250
       6554.5844       1.0867285
       6554.6018       1.0873977
       6554.6193       1.0884625
       6554.6367       1.0899012
       6554.6541       1.0916597
       6554.6715       1.0936785
       6554.6889       1.0959106
       6554.7063       1.0983241
       6554.7237       1.1008923
       6554.7411       1.1035816
       6554.7585       1.1063472
       6554.7760       1.1091379
       6554.7934       1.1119075
       6554.8108       1.1146274
       6554.8282       1.1172951
       6554.8456       1.1199392
       6554.8630       1.1226177
       6554.8804       1.1254104
       6554.8978       1.1283929
       6554.9152       1.1316089
       6554.9326       1.1350417
       6554.9501       1.1385981
       6554.9675       1.1421146
       6554.9849       1.1453858
       6555.0023       1.1482051
       6555.0197       1.1504037
       6555.0371       1.1518746
       6555.0545       1.1525765
       6555.0719       1.1525196
       6555.0893       1.1517426
       6555.1067       1.1502907
       6555.1242       1.1482035
       6555.1416       1.1455179
       6555.1590       1.1422812
       6555.1764       1.1385669
       6555.1938       1.1344804
       6555.2112       1.1301475
       6555.2286       1.1256869
       6555.2460       1.1211783
       6555.2634       1.1166407
       6555.2808       1.1120329
       6555.2983       1.1072793
       6555.3157       1.1023149
       6555.3331       1.0971347
       6555.3505       1.0918295
       6555.3679       1.0865931
       6555.3853       1.0816926
       6555.4027       1.0774048
       6555.4201       1.0739375
       6555.4375       1.0713635
       6555.4549       1.0695929
       6555.4724       1.0684016
       6555.4898       1.0675053
