# Angstrom [air],  flux [abs.cor.cont.sub+1]
       6545.0064       1.0207055
       6545.0239       1.0202861
       6545.0413       1.0200548
       6545.0587       1.0200092
       6545.0761       1.0200825
       6545.0935       1.0201626
       6545.1109       1.0201287
       6545.1283       1.0198933
       6545.1457       1.0194361
       6545.1631       1.0188189
       6545.1805       1.0181795
       6545.1980       1.0177050
       6545.2154       1.0175911
       6545.2328       1.0179933
       6545.2502       1.0189810
       6545.2676       1.0205100
       6545.2850       1.0224270
       6545.3024       1.0245125
       6545.3198       1.0265518
       6545.3372       1.0284121
       6545.3546       1.0300981
       6545.3721       1.0317672
       6545.3895       1.0336989
       6545.4069       1.0362318
       6545.4243       1.0396894
       6545.4417       1.0443180
       6545.4591       1.0502516
       6545.4765       1.0575065
       6545.4939       1.0659978
       6545.5113       1.0755666
       6545.5287       1.0860098
       6545.5462       1.0971044
       6545.5636       1.1086235
       6545.5810       1.1203399
       6545.5984       1.1320192
       6545.6158       1.1434068
       6545.6332       1.1542202
       6545.6506       1.1641588
       6545.6680       1.1729347
       6545.6854       1.1803172
       6545.7028       1.1861720
       6545.7203       1.1904772
       6545.7377       1.1933122
       6545.7551       1.1948054
       6545.7725       1.1950845
       6545.7899       1.1942343
       6545.8073       1.1922744
       6545.8247       1.1891587
       6545.8421       1.1847880
       6545.8595       1.1790335
       6545.8769       1.1717675
       6545.8944       1.1629041
       6545.9118       1.1524436
       6545.9292       1.1405075
       6545.9466       1.1273436
       6545.9640       1.1132905
       6545.9814       1.0987056
       6545.9988       1.0838829
       6546.0162       1.0689954
       6546.0336       1.0540871
       6546.0511       1.0391218
       6546.0685       1.0240655
       6546.0859       1.0089678
       6546.1033      0.99400663
       6546.1207      0.97947810
       6546.1381      0.96573663
       6546.1555      0.95311113
       6546.1729      0.94183083
       6546.1903      0.93198835
       6546.2077      0.92355110
       6546.2252      0.91641380
       6546.2426      0.91047115
       6546.2600      0.90568399
       6546.2774      0.90211558
       6546.2948      0.89992374
       6546.3122      0.89930921
       6546.3296      0.90043680
       6546.3470      0.90335894
       6546.3644      0.90798112
       6546.3818      0.91405711
       6546.3993      0.92127293
       6546.4167      0.92933550
       6546.4341      0.93803016
       6546.4515      0.94722486
       6546.4689      0.95681753
       6546.4863      0.96665749
       6546.5037      0.97648575
       6546.5211      0.98592801
       6546.5385      0.99454751
       6546.5559       1.0019369
       6546.5734       1.0078139
       6546.5908       1.0120867
       6546.6082       1.0148714
       6546.6256       1.0164589
       6546.6430       1.0172470
       6546.6604       1.0176596
       6546.6778       1.0180715
       6546.6952       1.0187565
       6546.7126       1.0198631
       6546.7300       1.0214166
       6546.7475       1.0233398
       6546.7649       1.0254849
       6546.7823       1.0276673
       6546.7997       1.0296974
       6546.8171       1.0314077
       6546.8345       1.0326751
       6546.8519       1.0334368
       6546.8693       1.0336988
       6546.8867       1.0335345
       6546.9041       1.0330726
       6546.9216       1.0324745
       6546.9390       1.0319042
       6546.9564       1.0314977
       6546.9738       1.0313370
       6546.9912       1.0314368
       6547.0086       1.0317476
       6547.0260       1.0321747
       6547.0434       1.0326085
       6547.0608       1.0329562
       6547.0782       1.0331574
       6547.0957       1.0331822
       6547.1131       1.0330139
       6547.1305       1.0326291
       6547.1479       1.0319898
       6547.1653       1.0310563
       6547.1827       1.0298181
       6547.2001       1.0283298
       6547.2175       1.0267321
       6547.2349       1.0252437
       6547.2523       1.0241167
       6547.2698       1.0235688
       6547.2872       1.0237117
       6547.3046       1.0245044
       6547.3220       1.0257514
       6547.3394       1.0271479
       6547.3568       1.0283555
       6547.3742       1.0290831
       6547.3916       1.0291476
       6547.4090       1.0285027
       6547.4264       1.0272386
       6547.4439       1.0255616
       6547.4613       1.0237599
       6547.4787       1.0221572
       6547.4961       1.0210549
       6547.5135       1.0206697
       6547.5309       1.0210825
       6547.5483       1.0222198
       6547.5657       1.0238793
       6547.5831       1.0257949
       6547.6006       1.0277173
       6547.6180       1.0294808
       6547.6354       1.0310313
       6547.6528       1.0324126
       6547.6702       1.0337236
       6547.6876       1.0350676
       6547.7050       1.0365102
       6547.7224       1.0380586
       6547.7398       1.0396579
       6547.7572       1.0411985
       6547.7747       1.0425336
       6547.7921       1.0435060
       6547.8095       1.0439803
       6547.8269       1.0438750
       6547.8443       1.0431852
       6547.8617       1.0419870
       6547.8791       1.0404204
       6547.8965       1.0386531
       6547.9139       1.0368317
       6547.9313       1.0350356
       6547.9488       1.0332498
       6547.9662       1.0313710
       6547.9836       1.0292507
       6548.0010       1.0267608
       6548.0184       1.0238561
       6548.0358       1.0206084
       6548.0532       1.0171986
       6548.0706       1.0138750
       6548.0880       1.0108976
       6548.1054       1.0084911
       6548.1229       1.0068159
       6548.1403       1.0059596
       6548.1577       1.0059406
       6548.1751       1.0067187
       6548.1925       1.0082088
       6548.2099       1.0102952
       6548.2273       1.0128445
       6548.2447       1.0157148
       6548.2621       1.0187630
       6548.2795       1.0218501
       6548.2970       1.0248483
       6548.3144       1.0276475
       6548.3318       1.0301650
       6548.3492       1.0323541
       6548.3666       1.0342018
       6548.3840       1.0357260
       6548.4014       1.0369677
       6548.4188       1.0379798
       6548.4362       1.0388179
       6548.4536       1.0395352
       6548.4711       1.0401806
       6548.4885       1.0407987
       6548.5059       1.0414276
       6548.5233       1.0420908
       6548.5407       1.0427854
       6548.5581       1.0434715
       6548.5755       1.0440703
       6548.5929       1.0444756
       6548.6103       1.0445796
       6548.6277       1.0443063
       6548.6452       1.0436407
       6548.6626       1.0426464
       6548.6800       1.0414642
       6548.6974       1.0402922
       6548.7148       1.0393539
       6548.7322       1.0388586
       6548.7496       1.0389636
       6548.7670       1.0397432
       6548.7844       1.0411713
       6548.8018       1.0431216
       6548.8193       1.0453854
       6548.8367       1.0477075
       6548.8541       1.0498298
       6548.8715       1.0515355
       6548.8889       1.0526788
       6548.9063       1.0531943
       6548.9237       1.0530824
       6548.9411       1.0523833
       6548.9585       1.0511529
       6548.9759       1.0494533
       6548.9934       1.0473711
       6549.0108       1.0450324
       6549.0282       1.0426197
       6549.0456       1.0403667
       6549.0630       1.0385285
       6549.0804       1.0373337
       6549.0978       1.0369340
       6549.1152       1.0373663
       6549.1326       1.0385410
       6549.1501       1.0402573
       6549.1675       1.0422438
       6549.1849       1.0442078
       6549.2023       1.0458829
       6549.2197       1.0470625
       6549.2371       1.0476181
       6549.2545       1.0475055
       6549.2719       1.0467639
       6549.2893       1.0455100
       6549.3067       1.0439253
       6549.3242       1.0422335
       6549.3416       1.0406690
       6549.3590       1.0394408
       6549.3764       1.0387012
       6549.3938       1.0385264
       6549.4112       1.0389109
       6549.4286       1.0397751
       6549.4460       1.0409806
       6549.4634       1.0423501
       6549.4808       1.0436909
       6549.4983       1.0448193
       6549.5157       1.0455861
       6549.5331       1.0459005
       6549.5505       1.0457500
       6549.5679       1.0452122
       6549.5853       1.0444513
       6549.6027       1.0436929
       6549.6201       1.0431776
       6549.6375       1.0430962
       6549.6549       1.0435263
       6549.6724       1.0444049
       6549.6898       1.0455358
       6549.7072       1.0466378
       6549.7246       1.0474161
       6549.7420       1.0476338
       6549.7594       1.0471637
       6549.7768       1.0460048
       6549.7942       1.0442664
       6549.8116       1.0421257
       6549.8290       1.0397776
       6549.8465       1.0373914
       6549.8639       1.0350872
       6549.8813       1.0329341
       6549.8987       1.0309647
       6549.9161       1.0291961
       6549.9335       1.0276493
       6549.9509       1.0263626
       6549.9683       1.0253985
       6549.9857       1.0248435
       6550.0031       1.0247967
       6550.0206       1.0253445
       6550.0380       1.0265221
       6550.0554       1.0282722
       6550.0728       1.0304206
       6550.0902       1.0326850
       6550.1076       1.0347276
       6550.1250       1.0362376
       6550.1424       1.0370190
       6550.1598       1.0370502
       6550.1772       1.0364940
       6550.1947       1.0356524
       6550.2121       1.0348842
       6550.2295       1.0345104
       6550.2469       1.0347376
       6550.2643       1.0356164
       6550.2817       1.0370441
       6550.2991       1.0387947
       6550.3165       1.0405981
       6550.3339       1.0422063
       6550.3513       1.0434519
       6550.3688       1.0442748
       6550.3862       1.0447146
       6550.4036       1.0448727
       6550.4210       1.0448641
       6550.4384       1.0447760
       6550.4558       1.0446486
       6550.4732       1.0444777
       6550.4906       1.0442357
       6550.5080       1.0438994
       6550.5254       1.0434765
       6550.5429       1.0430209
       6550.5603       1.0426322
       6550.5777       1.0424392
       6550.5951       1.0425720
       6550.6125       1.0431347
       6550.6299       1.0441856
       6550.6473       1.0457262
       6550.6647       1.0476966
       6550.6821       1.0499734
       6550.6995       1.0523736
       6550.7170       1.0546721
       6550.7344       1.0566392
       6550.7518       1.0580930
       6550.7692       1.0589472
       6550.7866       1.0592342
       6550.8040       1.0590894
       6550.8214       1.0587010
       6550.8388       1.0582476
       6550.8562       1.0578486
       6550.8737       1.0575470
       6550.8911       1.0573267
       6550.9085       1.0571490
       6550.9259       1.0569875
       6550.9433       1.0568443
       6550.9607       1.0567451
       6550.9781       1.0567201
       6550.9955       1.0567886
       6551.0129       1.0569525
       6551.0303       1.0572004
       6551.0478       1.0575161
       6551.0652       1.0578845
       6551.0826       1.0582910
       6551.1000       1.0587185
       6551.1174       1.0591420
       6551.1348       1.0595255
       6551.1522       1.0598235
       6551.1696       1.0599888
       6551.1870       1.0599877
       6551.2044       1.0598204
       6551.2219       1.0595378
       6551.2393       1.0592458
       6551.2567       1.0590889
       6551.2741       1.0592143
       6551.2915       1.0597265
       6551.3089       1.0606455
       6551.3263       1.0618841
       6551.3437       1.0632512
       6551.3611       1.0644841
       6551.3785       1.0653036
       6551.3960       1.0654795
       6551.4134       1.0648886
       6551.4308       1.0635498
       6551.4482       1.0616240
       6551.4656       1.0593817
       6551.4830       1.0571465
       6551.5004       1.0552345
       6551.5178       1.0539003
       6551.5352       1.0533003
       6551.5526       1.0534736
       6551.5701       1.0543411
       6551.5875       1.0557217
       6551.6049       1.0573639
       6551.6223       1.0590102
       6551.6397       1.0604515
       6551.6571       1.0615749
       6551.6745       1.0623808
       6551.6919       1.0629641
       6551.7093       1.0634642
       6551.7267       1.0640066
       6551.7442       1.0646579
       6551.7616       1.0654117
       6551.7790       1.0662043
       6551.7964       1.0669480
       6551.8138       1.0675632
       6551.8312       1.0679980
       6551.8486       1.0682317
       6551.8660       1.0682641
       6551.8834       1.0680962
       6551.9008       1.0677052
       6551.9183       1.0670211
       6551.9357       1.0659139
       6551.9531       1.0642045
       6551.9705       1.0617031
       6551.9879       1.0582702
       6552.0053       1.0538818
       6552.0227       1.0486733
       6552.0401       1.0429459
       6552.0575       1.0371299
       6552.0749       1.0317161
       6552.0924       1.0271776
       6552.1098       1.0239015
       6552.1272       1.0221443
       6552.1446       1.0220116
       6552.1620       1.0234587
       6552.1794       1.0263053
       6552.1968       1.0302599
       6552.2142       1.0349509
       6552.2316       1.0399633
       6552.2490       1.0448778
       6552.2665       1.0493267
       6552.2839       1.0530378
       6552.3013       1.0558719
       6552.3187       1.0578365
       6552.3361       1.0590662
       6552.3535       1.0597701
       6552.3709       1.0601671
       6552.3883       1.0604348
       6552.4057       1.0606904
       6552.4232       1.0610038
       6552.4406       1.0614241
       6552.4580       1.0619990
       6552.4754       1.0627781
       6552.4928       1.0638064
       6552.5102       1.0651191
       6552.5276       1.0667445
       6552.5450       1.0687040
       6552.5624       1.0709997
       6552.5798       1.0735872
       6552.5973       1.0763457
       6552.6147       1.0790706
       6552.6321       1.0815038
       6552.6495       1.0833971
       6552.6669       1.0845853
       6552.6843       1.0850377
       6552.7017       1.0848670
       6552.7191       1.0842933
       6552.7365       1.0835798
       6552.7539       1.0829655
       6552.7714       1.0826173
       6552.7888       1.0826117
       6552.8062       1.0829429
       6552.8236       1.0835468
       6552.8410       1.0843281
       6552.8584       1.0851808
       6552.8758       1.0859998
       6552.8932       1.0866855
       6552.9106       1.0871515
       6552.9280       1.0873374
       6552.9455       1.0872286
       6552.9629       1.0868762
       6552.9803       1.0864024
       6552.9977       1.0859789
       6553.0151       1.0857740
       6553.0325       1.0858843
       6553.0499       1.0862763
       6553.0673       1.0867683
       6553.0847       1.0870662
       6553.1021       1.0868443
       6553.1196       1.0858448
       6553.1370       1.0839581
       6553.1544       1.0812593
       6553.1718       1.0779898
       6553.1892       1.0744949
       6553.2066       1.0711395
       6553.2240       1.0682289
       6553.2414       1.0659554
       6553.2588       1.0643834
       6553.2762       1.0634717
       6553.2937       1.0631213
       6553.3111       1.0632296
       6553.3285       1.0637346
       6553.3459       1.0646352
       6553.3633       1.0659805
       6553.3807       1.0678298
       6553.3981       1.0701954
       6553.4155       1.0729905
       6553.4329       1.0760089
       6553.4503       1.0789563
       6553.4678       1.0815304
       6553.4852       1.0835183
       6553.5026       1.0848700
       6553.5200       1.0857094
       6553.5374       1.0862763
       6553.5548       1.0868272
       6553.5722       1.0875270
       6553.5896       1.0883970
       6553.6070       1.0893231
       6553.6244       1.0901170
       6553.6419       1.0905980
       6553.6593       1.0906649
       6553.6767       1.0903309
       6553.6941       1.0897174
       6553.7115       1.0890160
       6553.7289       1.0884372
       6553.7463       1.0881611
       6553.7637       1.0883018
       6553.7811       1.0888895
       6553.7985       1.0898700
       6553.8160       1.0911232
       6553.8334       1.0924947
       6553.8508       1.0938324
       6553.8682       1.0950148
       6553.8856       1.0959606
       6553.9030       1.0966179
       6553.9204       1.0969420
       6553.9378       1.0968782
       6553.9552       1.0963616
       6553.9727       1.0953411
       6553.9901       1.0938163
       6554.0075       1.0918728
       6554.0249       1.0896956
       6554.0423       1.0875523
       6554.0597       1.0857452
       6554.0771       1.0845472
       6554.0945       1.0841393
       6554.1119       1.0845722
       6554.1293       1.0857604
       6554.1468       1.0875113
       6554.1642       1.0895748
       6554.1816       1.0916953
       6554.1990       1.0936504
       6554.2164       1.0952749
       6554.2338       1.0964646
       6554.2512       1.0971761
       6554.2686       1.0974283
       6554.2860       1.0973024
       6554.3034       1.0969348
       6554.3209       1.0964945
       6554.3383       1.0961470
       6554.3557       1.0960122
       6554.3731       1.0961336
       6554.3905       1.0964725
       6554.4079       1.0969343
       6554.4253       1.0974162
       6554.4427       1.0978568
       6554.4601       1.0982631
       6554.4775       1.0986997
       6554.4950       1.0992478
       6554.5124       1.0999550
       6554.5298       1.1008054
       6554.5472       1.1017270
       6554.5646       1.1026323
       6554.5820       1.1034708
       6554.5994       1.1042645
       6554.6168       1.1051090
       6554.6342       1.1061429
       6554.6516       1.1075024
       6554.6691       1.1092829
       6554.6865       1.1115227
       6554.7039       1.1142085
       6554.7213       1.1172913
       6554.7387       1.1207031
       6554.7561       1.1243656
       6554.7735       1.1281945
       6554.7909       1.1321019
       6554.8083       1.1360027
       6554.8257       1.1398212
       6554.8432       1.1434956
       6554.8606       1.1469770
       6554.8780       1.1502209
       6554.8954       1.1531771
       6554.9128       1.1557850
       6554.9302       1.1579792
       6554.9476       1.1597082
       6554.9650       1.1609581
       6554.9824       1.1617685
       6554.9998       1.1622263
       6555.0173       1.1624308
       6555.0347       1.1624412
       6555.0521       1.1622270
       6555.0695       1.1616450
       6555.0869       1.1604561
       6555.1043       1.1583795
       6555.1217       1.1551687
       6555.1391       1.1506885
       6555.1565       1.1449745
       6555.1739       1.1382590
       6555.1914       1.1309548
       6555.2088       1.1235975
       6555.2262       1.1167531
       6555.2436       1.1109122
       6555.2610       1.1063952
       6555.2784       1.1032947
       6555.2958       1.1014708
       6555.3132       1.1006016
       6555.3306       1.1002734
       6555.3480       1.1000821
       6555.3655       1.0997154
       6555.3829       1.0989946
       6555.4003       1.0978735
       6555.4177       1.0964061
       6555.4351       1.0947081
       6555.4525       1.0929264
       6555.4699       1.0912215
       6555.4873       1.0897555
       6555.5047       1.0886723
