# Angstrom [air],  flux [abs.cor.cont.sub+1]
       6544.9926       1.0230764
       6545.0100       1.0226292
       6545.0274       1.0222681
       6545.0448       1.0220072
       6545.0622       1.0217693
       6545.0797       1.0214221
       6545.0971       1.0208488
       6545.1145       1.0200192
       6545.1319       1.0190357
       6545.1493       1.0181173
       6545.1667       1.0175360
       6545.1841       1.0175308
       6545.2015       1.0182302
       6545.2189       1.0196115
       6545.2363       1.0215104
       6545.2538       1.0236739
       6545.2712       1.0258349
       6545.2886       1.0277829
       6545.3060       1.0294097
       6545.3234       1.0307204
       6545.3408       1.0318141
       6545.3582       1.0328464
       6545.3756       1.0339897
       6545.3930       1.0354048
       6545.4104       1.0372284
       6545.4279       1.0395781
       6545.4453       1.0425642
       6545.4627       1.0462997
       6545.4801       1.0508958
       6545.4975       1.0564425
       6545.5149       1.0629799
       6545.5323       1.0704740
       6545.5497       1.0788089
       6545.5671       1.0878010
       6545.5846       1.0972296
       6545.6020       1.1068734
       6545.6194       1.1165426
       6545.6368       1.1260974
       6545.6542       1.1354508
       6545.6716       1.1445573
       6545.6890       1.1533886
       6545.7064       1.1619053
       6545.7238       1.1700311
       6545.7412       1.1776380
       6545.7587       1.1845466
       6545.7761       1.1905415
       6545.7935       1.1953947
       6545.8109       1.1988994
       6545.8283       1.2008923
       6545.8457       1.2012688
       6545.8631       1.1999843
       6545.8805       1.1970453
       6545.8979       1.1924904
       6545.9153       1.1863692
       6545.9328       1.1787231
       6545.9502       1.1695738
       6545.9676       1.1589240
       6545.9850       1.1467729
       6546.0024       1.1331459
       6546.0198       1.1181296
       6546.0372       1.1019010
       6546.0546       1.0847351
       6546.0720       1.0669868
       6546.0894       1.0490502
       6546.1069       1.0313110
       6546.1243       1.0141091
       6546.1417      0.99772047
       6546.1591      0.98235995
       6546.1765      0.96819435
       6546.1939      0.95535448
       6546.2113      0.94393914
       6546.2287      0.93401153
       6546.2461      0.92559519
       6546.2636      0.91867790
       6546.2810      0.91322791
       6546.2984      0.90921986
       6546.3158      0.90666026
       6546.3332      0.90559990
       6546.3506      0.90612312
       6546.3680      0.90831340
       6546.3854      0.91220577
       6546.4028      0.91774391
       6546.4202      0.92476429
       6546.4377      0.93298645
       6546.4551      0.94205934
       6546.4725      0.95160328
       6546.4899      0.96124272
       6546.5073      0.97063022
       6546.5247      0.97946056
       6546.5421      0.98748197
       6546.5595      0.99451037
       6546.5769       1.0004464
       6546.5943       1.0052883
       6546.6118       1.0091304
       6546.6292       1.0121400
       6546.6466       1.0145145
       6546.6640       1.0164323
       6546.6814       1.0180175
       6546.6988       1.0193335
       6546.7162       1.0204088
       6546.7336       1.0212793
       6546.7510       1.0220224
       6546.7684       1.0227627
       6546.7859       1.0236428
       6546.8033       1.0247722
       6546.8207       1.0261808
       6546.8381       1.0277992
       6546.8555       1.0294772
       6546.8729       1.0310329
       6546.8903       1.0323114
       6546.9077       1.0332306
       6546.9251       1.0337954
       6546.9426       1.0340809
       6546.9600       1.0341940
       6546.9774       1.0342336
       6546.9948       1.0342631
       6547.0122       1.0343030
       6547.0296       1.0343357
       6547.0470       1.0343121
       6547.0644       1.0341537
       6547.0818       1.0337524
       6547.0992       1.0329840
       6547.1167       1.0317317
       6547.1341       1.0299275
       6547.1515       1.0275916
       6547.1689       1.0248528
       6547.1863       1.0219375
       6547.2037       1.0191330
       6547.2211       1.0167372
       6547.2385       1.0150137
       6547.2559       1.0141589
       6547.2733       1.0142831
       6547.2908       1.0153983
       6547.3082       1.0174134
       6547.3256       1.0201374
       6547.3430       1.0232974
       6547.3604       1.0265717
       6547.3778       1.0296354
       6547.3952       1.0322090
       6547.4126       1.0341002
       6547.4300       1.0352309
       6547.4474       1.0356428
       6547.4649       1.0354779
       6547.4823       1.0349379
       6547.4997       1.0342316
       6547.5171       1.0335265
       6547.5345       1.0329222
       6547.5519       1.0324536
       6547.5693       1.0321198
       6547.5867       1.0319243
       6547.6041       1.0319015
       6547.6216       1.0321178
       6547.6390       1.0326436
       6547.6564       1.0335131
       6547.6738       1.0346928
       6547.6912       1.0360771
       6547.7086       1.0375170
       6547.7260       1.0388657
       6547.7434       1.0400278
       6547.7608       1.0409818
       6547.7782       1.0417718
       6547.7957       1.0424794
       6547.8131       1.0431899
       6547.8305       1.0439669
       6547.8479       1.0448417
       6547.8653       1.0458093
       6547.8827       1.0468270
       6547.9001       1.0478103
       6547.9175       1.0486328
       6547.9349       1.0491356
       6547.9523       1.0491500
       6547.9698       1.0485278
       6547.9872       1.0471714
       6548.0046       1.0450524
       6548.0220       1.0422163
       6548.0394       1.0387741
       6548.0568       1.0348866
       6548.0742       1.0307468
       6548.0916       1.0265636
       6548.1090       1.0225477
       6548.1264       1.0189013
       6548.1439       1.0158104
       6548.1613       1.0134384
       6548.1787       1.0119192
       6548.1961       1.0113449
       6548.2135       1.0117499
       6548.2309       1.0130938
       6548.2483       1.0152536
       6548.2657       1.0180309
       6548.2831       1.0211776
       6548.3006       1.0244326
       6548.3180       1.0275607
       6548.3354       1.0303800
       6548.3528       1.0327731
       6548.3702       1.0346782
       6548.3876       1.0360731
       6548.4050       1.0369616
       6548.4224       1.0373621
       6548.4398       1.0373198
       6548.4572       1.0369250
       6548.4747       1.0363245
       6548.4921       1.0357130
       6548.5095       1.0352983
       6548.5269       1.0352492
       6548.5443       1.0356480
       6548.5617       1.0364674
       6548.5791       1.0375831
       6548.5965       1.0388183
       6548.6139       1.0400003
       6548.6313       1.0410100
       6548.6488       1.0418084
       6548.6662       1.0424361
       6548.6836       1.0429917
       6548.7010       1.0435991
       6548.7184       1.0443747
       6548.7358       1.0454003
       6548.7532       1.0467078
       6548.7706       1.0482757
       6548.7880       1.0500338
       6548.8054       1.0518742
       6548.8229       1.0536636
       6548.8403       1.0552573
       6548.8577       1.0565152
       6548.8751       1.0573189
       6548.8925       1.0575908
       6548.9099       1.0573073
       6548.9273       1.0565057
       6548.9447       1.0552790
       6548.9621       1.0537617
       6548.9796       1.0521060
       6548.9970       1.0504559
       6549.0144       1.0489215
       6549.0318       1.0475664
       6549.0492       1.0464041
       6549.0666       1.0454234
       6549.0840       1.0446173
       6549.1014       1.0440057
       6549.1188       1.0436382
       6549.1362       1.0435732
       6549.1537       1.0438450
       6549.1711       1.0444355
       6549.1885       1.0452671
       6549.2059       1.0462187
       6549.2233       1.0471537
       6549.2407       1.0479475
       6549.2581       1.0485023
       6549.2755       1.0487502
       6549.2929       1.0486504
       6549.3103       1.0481866
       6549.3278       1.0473679
       6549.3452       1.0462318
       6549.3626       1.0448447
       6549.3800       1.0432993
       6549.3974       1.0417088
       6549.4148       1.0401989
       6549.4322       1.0388957
       6549.4496       1.0379063
       6549.4670       1.0372937
       6549.4844       1.0370509
       6549.5019       1.0370890
       6549.5193       1.0372522
       6549.5367       1.0373604
       6549.5541       1.0372690
       6549.5715       1.0369193
       6549.5889       1.0363587
       6549.6063       1.0357211
       6549.6237       1.0351770
       6549.6411       1.0348767
       6549.6586       1.0349083
       6549.6760       1.0352868
       6549.6934       1.0359681
       6549.7108       1.0368815
       6549.7282       1.0379621
       6549.7456       1.0391619
       6549.7630       1.0404424
       6549.7804       1.0417548
       6549.7978       1.0430235
       6549.8152       1.0441473
       6549.8327       1.0450222
       6549.8501       1.0455758
       6549.8675       1.0457951
       6549.8849       1.0457311
       6549.9023       1.0454777
       6549.9197       1.0451364
       6549.9371       1.0447879
       6549.9545       1.0444847
       6549.9719       1.0442642
       6549.9893       1.0441663
       6550.0068       1.0442375
       6550.0242       1.0445159
       6550.0416       1.0450038
       6550.0590       1.0456473
       6550.0764       1.0463403
       6550.0938       1.0469523
       6550.1112       1.0473717
       6550.1286       1.0475422
       6550.1460       1.0474799
       6550.1635       1.0472657
       6550.1809       1.0470174
       6550.1983       1.0468528
       6550.2157       1.0468551
       6550.2331       1.0470503
       6550.2505       1.0474045
       6550.2679       1.0478387
       6550.2853       1.0482551
       6550.3027       1.0485640
       6550.3201       1.0486997
       6550.3376       1.0486225
       6550.3550       1.0483186
       6550.3724       1.0477933
       6550.3898       1.0470764
       6550.4072       1.0462319
       6550.4246       1.0453624
       6550.4420       1.0446022
       6550.4594       1.0440927
       6550.4768       1.0439496
       6550.4942       1.0442334
       6550.5117       1.0449371
       6550.5291       1.0459949
       6550.5465       1.0473052
       6550.5639       1.0487575
       6550.5813       1.0502504
       6550.5987       1.0516976
       6550.6161       1.0530270
       6550.6335       1.0541763
       6550.6509       1.0550927
       6550.6683       1.0557351
       6550.6858       1.0560820
       6550.7032       1.0561414
       6550.7206       1.0559623
       6550.7380       1.0556391
       6550.7554       1.0553037
       6550.7728       1.0550981
       6550.7902       1.0551340
       6550.8076       1.0554550
       6550.8250       1.0560188
       6550.8425       1.0567117
       6550.8599       1.0573887
       6550.8773       1.0579235
       6550.8947       1.0582456
       6550.9121       1.0583509
       6550.9295       1.0582868
       6550.9469       1.0581201
       6550.9643       1.0579045
       6550.9817       1.0576565
       6550.9991       1.0573512
       6551.0166       1.0569372
       6551.0340       1.0563667
       6551.0514       1.0556289
       6551.0688       1.0547730
       6551.0862       1.0539093
       6551.1036       1.0531854
       6551.1210       1.0527460
       6551.1384       1.0526904
       6551.1558       1.0530448
       6551.1732       1.0537581
       6551.1907       1.0547212
       6551.2081       1.0558041
       6551.2255       1.0568967
       6551.2429       1.0579413
       6551.2603       1.0589432
       6551.2777       1.0599548
       6551.2951       1.0610365
       6551.3125       1.0622084
       6551.3299       1.0634144
       6551.3473       1.0645151
       6551.3648       1.0653158
       6551.3822       1.0656221
       6551.3996       1.0653027
       6551.4170       1.0643376
       6551.4344       1.0628357
       6551.4518       1.0610155
       6551.4692       1.0591564
       6551.4866       1.0575328
       6551.5040       1.0563527
       6551.5215       1.0557153
       6551.5389       1.0556021
       6551.5563       1.0559012
       6551.5737       1.0564579
       6551.5911       1.0571330
       6551.6085       1.0578472
       6551.6259       1.0585988
       6551.6433       1.0594463
       6551.6607       1.0604639
       6551.6781       1.0616918
       6551.6956       1.0631008
       6551.7130       1.0645846
       6551.7304       1.0659829
       6551.7478       1.0671239
       6551.7652       1.0678724
       6551.7826       1.0681647
       6551.8000       1.0680242
       6551.8174       1.0675509
       6551.8348       1.0668919
       6551.8522       1.0661979
       6551.8697       1.0655803
       6551.8871       1.0650801
       6551.9045       1.0646591
       6551.9219       1.0642177
       6551.9393       1.0636306
       6551.9567       1.0627877
       6551.9741       1.0616233
       6551.9915       1.0601252
       6552.0089       1.0583215
       6552.0263       1.0562563
       6552.0438       1.0539683
       6552.0612       1.0514824
       6552.0786       1.0488204
       6552.0960       1.0460234
       6552.1134       1.0431765
       6552.1308       1.0404229
       6552.1482       1.0379595
       6552.1656       1.0360139
       6552.1830       1.0348094
       6552.2005       1.0345277
       6552.2179       1.0352790
       6552.2353       1.0370841
       6552.2527       1.0398701
       6552.2701       1.0434761
       6552.2875       1.0476692
       6552.3049       1.0521567
       6552.3223       1.0566203
       6552.3397       1.0607419
       6552.3571       1.0642330
       6552.3746       1.0668675
       6552.3920       1.0685137
       6552.4094       1.0691582
       6552.4268       1.0689161
       6552.4442       1.0680165
       6552.4616       1.0667641
       6552.4790       1.0654833
       6552.4964       1.0644580
       6552.5138       1.0638869
       6552.5312       1.0638674
       6552.5487       1.0644088
       6552.5661       1.0654663
       6552.5835       1.0669758
       6552.6009       1.0688729
       6552.6183       1.0710897
       6552.6357       1.0735377
       6552.6531       1.0760933
       6552.6705       1.0786012
       6552.6879       1.0809005
       6552.7053       1.0828624
       6552.7228       1.0844234
       6552.7402       1.0855970
       6552.7576       1.0864610
       6552.7750       1.0871279
       6552.7924       1.0877128
       6552.8098       1.0883090
       6552.8272       1.0889744
       6552.8446       1.0897249
       6552.8620       1.0905315
       6552.8795       1.0913242
       6552.8969       1.0920060
       6552.9143       1.0924794
       6552.9317       1.0926762
       6552.9491       1.0925787
       6552.9665       1.0922211
       6552.9839       1.0916664
       6553.0013       1.0909792
       6553.0187       1.0902073
       6553.0361       1.0893799
       6553.0536       1.0885188
       6553.0710       1.0876499
       6553.0884       1.0868050
       6553.1058       1.0860101
       6553.1232       1.0852687
       6553.1406       1.0845507
       6553.1580       1.0837936
       6553.1754       1.0829170
       6553.1928       1.0818437
       6553.2102       1.0805197
       6553.2277       1.0789282
       6553.2451       1.0770972
       6553.2625       1.0751018
       6553.2799       1.0730610
       6553.2973       1.0711271
       6553.3147       1.0694646
       6553.3321       1.0682210
       6553.3495       1.0674962
       6553.3669       1.0673192
       6553.3843       1.0676437
       6553.4018       1.0683637
       6553.4192       1.0693430
       6553.4366       1.0704468
       6553.4540       1.0715650
       6553.4714       1.0726231
       6553.4888       1.0735838
       6553.5062       1.0744464
       6553.5236       1.0752452
       6553.5410       1.0760420
       6553.5585       1.0769084
       6553.5759       1.0778967
       6553.5933       1.0790109
       6553.6107       1.0801896
       6553.6281       1.0813211
       6553.6455       1.0822803
       6553.6629       1.0829785
       6553.6803       1.0834037
       6553.6977       1.0836344
       6553.7151       1.0838216
       6553.7326       1.0841448
       6553.7500       1.0847586
       6553.7674       1.0857474
       6553.7848       1.0871023
       6553.8022       1.0887253
       6553.8196       1.0904570
       6553.8370       1.0921170
       6553.8544       1.0935463
       6553.8718       1.0946380
       6553.8892       1.0953514
       6553.9067       1.0957087
       6553.9241       1.0957752
       6553.9415       1.0956323
       6553.9589       1.0953486
       6553.9763       1.0949587
       6553.9937       1.0944549
       6554.0111       1.0937963
       6554.0285       1.0929348
       6554.0459       1.0918495
       6554.0633       1.0905756
       6554.0808       1.0892131
       6554.0982       1.0879065
       6554.1156       1.0868011
       6554.1330       1.0859922
       6554.1504       1.0854894
       6554.1678       1.0852098
       6554.1852       1.0850033
       6554.2026       1.0846991
       6554.2200       1.0841566
       6554.2375       1.0833051
       6554.2549       1.0821669
       6554.2723       1.0808556
       6554.2897       1.0795463
       6554.3071       1.0784369
       6554.3245       1.0777025
       6554.3419       1.0774573
       6554.3593       1.0777338
       6554.3767       1.0784833
       6554.3941       1.0795949
       6554.4116       1.0809252
       6554.4290       1.0823294
       6554.4464       1.0836879
       6554.4638       1.0849247
       6554.4812       1.0860162
       6554.4986       1.0869901
       6554.5160       1.0879136
       6554.5334       1.0888747
       6554.5508       1.0899582
       6554.5682       1.0912264
       6554.5857       1.0927062
       6554.6031       1.0943867
       6554.6205       1.0962257
       6554.6379       1.0981649
       6554.6553       1.1001490
       6554.6727       1.1021471
       6554.6901       1.1041685
       6554.7075       1.1062653
       6554.7249       1.1085162
       6554.7423       1.1109934
       6554.7598       1.1137233
       6554.7772       1.1166570
       6554.7946       1.1196646
       6554.8120       1.1225623
       6554.8294       1.1251656
       6554.8468       1.1273537
       6554.8642       1.1291205
       6554.8816       1.1305900
       6554.8990       1.1319887
       6554.9165       1.1335732
       6554.9339       1.1355412
       6554.9513       1.1379647
       6554.9687       1.1407606
       6554.9861       1.1437114
       6555.0035       1.1465241
       6555.0209       1.1489057
       6555.0383       1.1506299
       6555.0557       1.1515767
       6555.0731       1.1517391
       6555.0906       1.1512002
       6555.1080       1.1500913
       6555.1254       1.1485448
       6555.1428       1.1466534
       6555.1602       1.1444459
       6555.1776       1.1418835
       6555.1950       1.1388784
       6555.2124       1.1353284
       6555.2298       1.1311573
       6555.2472       1.1263491
       6555.2647       1.1209677
       6555.2821       1.1151563
       6555.2995       1.1091213
       6555.3169       1.1031059
       6555.3343       1.0973599
       6555.3517       1.0921102
       6555.3691       1.0875347
       6555.3865       1.0837404
       6555.4039       1.0807513
       6555.4213       1.0785092
       6555.4388       1.0768909
       6555.4562       1.0757357
       6555.4736       1.0748765
       6555.4910       1.0741637
